58
558
558
559
560
558
562
565
568
568
569
570
570
572
572
576
576
577
577
579
581
582
582
580
580
582
584
586
585
585
584
584
582
579
574
571
569
568
567
562
565
567
562
567
568
568
568
566
567
566
568
568
569
567
567
571
576
572
569
570
574
572
572
576
576
574
579
586
589
584
582
584
585
584
581
579
570
568
567
561
558
554
558
558
554
554
553
554
559
568
580
601
620
634
629
596
553
517
509
520
528
536
547
548
550
560
559
556
561
566
567
566
562
566
567
567
569
569
571
573
571
579
579
577
579
580
572
581
585
589
586
584
586
586
588
589
590
592
589
588
592
594
592
586
585
584
581
580
576
572
574
570
572
571
572
570
572
572
574
572
574
574
574
572
572
572
571
574
572
568
568
569
568
567
570
576
580
580
581
583
585
586
586
586
581
578
571
570
570
569
566
560
558
556
558
556
554
555
555
555
558
569
586
607
624
632
619
578
533
509
507
522
533
540
543
545
547
552
553
556
558
559
555
552
556
560
559
560
561
564
559
559
561
564
562
569
572
577
576
570
574
574
577
577
585
585
580
580
584
584
581
582
583
581
584
579
577
572
568
567
567
561
561
562
560
558
555
558
559
558
556
559
557
559
562
561
558
558
556
556
555
555
556
557
555
557
560
561
561
560
566
572
569
566
565
562
559
560
558
554
545
543
542
536
536
535
534
531
530
532
533
537
546
560
580
598
609
600
562
514
486
478
486
498
512
519
522
522
525
526
525
528
528
526
526
530
533
530
530
532
533
532
536
538
540
537
541
542
546
545
543
546
547
546
549
547
549
550
554
555
554
555
556
554
550
552
550
549
547
545
544
542
536
534
534
540
535
534
535
540
540
536
535
536
536
540
541
537
534
537
542
542
541
541
544
546
550
554
552
552
555
561
566
559
556
556
555
558
555
552
546
541
542
542
541
542
542
541
533
532
535
537
543
556
574
598
616
627
620
585
543
512
506
512
519
525
535
541
547
553
554
553
553
555
559
560
559
561
562
566
567
570
571
570
570
574
580
581
580
582
582
584
589
594
591
595
600
600
597
598
601
598
600
600
600
598
595
594
596
596
589
588
588
583
581
585
581
579
580
581
581
580
582
586
584
579
581
585
589
588
589
590
590
588
588
592
591
590
595
597
597
600
604
613
607
606
609
613
606
601
598
596
593
590
588
585
581
580
584
582
578
581
584
584
594
614
637
652
664
655
616
572
542
536
545
558
567
574
577
577
577
582
585
581
578
586
589
586
589
594
595
596
596
598
596
598
603
601
597
603
608
605
605
605
614
614
613
615
617
615
612
615
615
614
614
614
609
609
607
606
603
598
593
594
588
586
586
586
584
581
584
588
585
582
584
590
585
580
580
584
581
584
582
582
581
580
581
585
586
586
592
589
592
596
597
592
590
594
591
586
582
582
577
569
567
567
567
560
558
559
556
554
552
553
556
562
581
598
617
632
626
589
541
506
502
512
521
530
536
540
542
542
542
542
542
546
550
552
550
550
550
552
547
552
554
553
553
555
558
559
559
564
566
569
567
567
568
564
568
569
569
570
572
577
573
574
571
570
569
566
562
558
552
547
545
544
543
543
546
545
542
543
543
542
541
542
544
541
540
541
542
541
541
542
546
543
543
542
543
542
546
550
545
547
547
554
556
554
553
553
549
547
550
548
541
534
530
533
533
528
529
525
521
525
525
525
525
537
560
579
596
607
596
554
514
484
483
489
498
507
512
517
519
524
522
524
524
530
528
528
524
532
536
534
532
535
535
535
537
541
543
545
546
549
550
550
553
555
556
559
558
559
556
558
561
561
566
566
566
560
557
560
560
555
552
554
552
549
543
545
549
547
549
552
550
547
550
552
546
547
554
555
554
552
553
555
555
555
553
555
555
554
556
559
560
562
569
567
569
570
574
579
574
572
572
568
559
559
559
558
555
555
553
553
552
553
552
547
550
555
569
581
596
615
629
625
596
556
522
506
512
526
533
538
544
550
554
556
558
560
560
560
564
567
567
566
570
571
570
568
571
574
574
577
581
580
582
585
586
585
584
586
586
584
584
591
594
590
591
594
594
592
592
589
585
580
577
577
574
567
568
570
569
568
562
566
567
566
567
568
565
566
569
568
566
566
570
569
570
571
571
570
570
570
571
567
571
578
580
582
582
588
591
588
585
584
585
582
581
580
577
568
566
567
566
562
560
566
562
559
561
559
556
562
577
594
614
632
637
613
571
533
513
518
525
533
540
541
545
548
552
554
555
555
556
556
556
561
566
559
557
561
567
566
567
570
569
569
570
572
576
576
574
576
577
579
580
584
585
581
582
586
588
588
590
588
585
585
585
582
576
569
568
568
564
561
561
560
560
564
559
553
556
565
569
566
561
568
570
561
560
562
562
558
559
558
558
559
558
560
562
560
561
566
568
566
567
570
576
576
576
572
567
566
561
555
547
546
547
545
542
544
542
535
536
542
543
542
544
565
582
602
616
619
597
556
517
498
499
505
509
520
524
525
528
533
533
533
534
535
542
538
545
546
544
546
545
547
546
546
549
550
549
553
554
554
553
558
558
562
562
562
567
566
565
566
565
562
561
567
566
562
562
560
555
550
553
550
546
540
540
542
541
537
542
543
541
537
543
546
545
542
540
542
543
542
544
544
542
542
542
540
540
541
542
542
540
546
549
550
550
556
559
555
554
558
558
554
552
547
545
537
533
532
533
534
530
531
528
526
530
530
535
547
565
584
601
614
606
568
526
494
489
497
502
511
519
525
528
532
535
535
532
535
538
537
541
544
547
547
547
550
552
550
550
552
553
558
558
561
561
566
569
571
570
571
577
577
572
572
574
577
579
579
582
581
578
572
572
570
568
566
562
558
556
559
560
560
559
560
562
562
560
560
562
561
560
562
567
561
560
562
566
566
567
567
568
568
567
568
566
568
570
574
574
577
581
582
582
580
580
581
579
574
574
570
566
562
566
562
556
560
561
560
560
564
566
568
574
592
614
636
641
629
592
545
519
522
535
543
550
555
560
562
566
566
568
570
572
579
579
578
576
577
574
576
582
586
586
589
590
592
592
595
598
601
600
603
605
606
607
605
607
613
608
614
613
613
614
614
614
609
606
603
601
601
598
598
595
594
590
592
590
589
588
590
590
590
589
590
588
588
593
594
595
595
598
596
597
595
596
596
595
592
595
595
592
594
597
601
602
607
609
616
614
613
613
610
608
610
608
603
596
597
597
596
594
591
593
590
592
595
596
596
601
616
629
649
669
674
653
615
573
552
552
560
572
581
586
594
596
598
598
596
601
602
601
601
601
598
596
601
607
607
607
607
606
606
607
609
613
610
609
610
613
610
610
618
619
619
619
618
616
615
615
615
615
613
609
609
606
601
601
597
594
590
588
586
585
585
586
588
586
585
586
582
581
578
576
579
581
584
581
581
582
577
577
574
576
579
582
577
574
577
580
581
582
588
589
594
596
596
590
585
584
582
577
577
576
567
561
558
561
561
555
555
560
559
554
554
568
582
597
610
620
614
580
542
512
502
512
521
532
530
532
540
543
542
543
543
543
546
552
556
553
555
558
560
558
554
559
560
559
556
561
566
567
568
574
572
570
574
581
581
577
578
584
580
577
578
579
579
577
572
576
571
569
569
567
558
556
554
556
556
558
560
556
553
552
555
555
554
556
558
555
556
558
560
562
562
561
559
559
560
562
560
559
558
560
561
562
566
572
576
577
577
576
570
571
571
571
565
558
558
552
546
549
553
546
538
540
542
540
537
545
558
572
585
603
609
598
561
518
490
488
495
505
511
513
519
524
528
528
530
528
536
535
533
532
532
535
538
536
537
542
542
543
541
544
546
547
547
550
554
556
556
559
558
560
562
562
568
568
567
566
568
568
567
570
567
561
559
559
556
552
550
552
550
547
553
555
552
552
552
554
553
553
554
555
556
558
559
559
555
553
556
558
555
554
558
560
561
566
567
567
566
568
577
577
577
581
581
579
574
572
576
576
568
562
561
560
556
561
562
561
559
560
566
560
566
580
598
616
629
642
633
598
560
531
522
528
540
550
549
556
558
557
561
566
561
562
570
569
572
574
572
576
577
576
577
579
580
582
580
581
585
586
588
590
595
597
596
594
593
592
596
598
594
594
597
598
598
595
594
595
592
586
585
581
576
572
574
572
570
569
571
571
571
571
572
571
568
567
568
567
565
564
567
567
562
561
560
560
559
558
558
556
559
560
560
561
566
567
569
569
570
571
570
562
559
559
554
547
546
545
542
540
541
540
536
538
537
534
530
535
552
568
582
601
607
584
542
502
480
486
495
505
508
512
518
519
521
519
523
524
524
522
523
532
530
526
525
526
523
522
524
528
532
533
533
533
532
535
537
541
541
541
542
542
543
546
547
547
543
545
550
547
541
541
540
535
528
528
528
525
524
523
524
524
521
520
518
516
514
518
521
519
521
523
526
523
522
523
524
525
523
519
518
519
522
524
523
524
532
533
533
534
536
542
537
535
540
537
535
533
533
526
521
522
523
518
519
521
519
517
513
518
522
528
542
557
577
595
597
578
541
497
476
478
489
497
506
512
513
513
518
523
524
528
531
532
533
530
533
532
532
535
536
534
532
537
542
543
545
550
550
549
550
555
558
558
558
559
560
558
558
561
566
560
559
561
561
560
558
556
554
547
543
544
542
541
545
547
545
542
541
543
545
545
547
546
545
552
553
552
547
547
552
552
550
552
553
554
552
550
554
556
558
560
562
562
568
577
577
577
574
574
572
569
562
559
560
556
555
554
552
554
556
558
554
550
552
556
570
589
613
636
646
638
606
564
523
514
524
534
535
541
548
550
550
554
558
559
558
556
560
561
562
566
569
569
567
570
572
569
571
576
577
577
582
586
586
585
588
590
592
590
594
594
594
596
598
598
597
600
600
596
592
594
594
588
581
579
582
577
572
576
574
572
571
573
577
571
571
574
574
572
573
574
570
562
560
562
567
569
571
571
570
568
568
571
570
571
571
571
571
572
573
576
576
576
576
571
571
566
560
556
547
546
543
537
534
534
534
535
535
534
542
559
577
596
616
619
594
555
509
485
489
498
508
514
519
522
522
523
526
532
533
533
532
533
532
533
535
535
534
535
538
542
543
543
545
545
536
542
547
546
552
552
553
550
550
550
555
555
555
556
558
560
560
561
561
554
555
553
547
543
544
541
540
537
536
537
537
537
535
536
536
537
536
536
534
535
537
540
540
541
544
542
540
535
535
534
534
536
540
541
543
546
549
548
554
560
560
556
553
553
554
547
545
543
540
537
541
537
536
536
536
538
535
533
536
546
557
576
598
617
620
598
556
514
494
496
509
519
526
534
536
540
541
546
552
554
554
559
561
560
561
568
570
570
574
577
581
579
580
582
582
584
588
592
596
597
600
603
603
600
601
600
601
601
603
603
603
598
602
601
596
594
590
588
584
580
580
578
577
579
584
585
586
586
586
584
582
586
584
580
577
581
584
585
585
589
590
589
586
588
588
585
586
588
590
592
592
597
596
600
600
598
596
595
596
592
588
581
577
577
571
569
571
571
570
570
569
568
568
570
580
594
613
634
646
642
610
566
529
519
526
541
549
552
552
554
555
558
562
566
565
560
560
567
566
567
568
568
569
568
569
570
572
570
574
576
572
570
577
581
581
580
585
584
582
586
586
584
585
590
590
586
581
581
580
572
571
570
568
564
562
559
556
555
553
556
559
560
559
558
560
557
558
558
555
556
560
560
559
556
560
562
556
556
561
562
562
566
571
576
570
574
577
579
576
576
580
577
572
572
573
567
561
562
562
559
555
553
555
556
550
552
555
556
567
579
595
614
628
626
595
552
513
506
514
524
533
541
543
546
552
555
555
557
562
566
562
562
566
560
558
561
567
569
568
570
574
572
572
579
579
577
580
584
586
588
588
588
585
585
589
585
590
595
595
589
586
585
582
581
579
580
577
572
570
570
569
569
568
566
569
570
568
569
569
570
568
569
570
570
571
576
576
576
574
574
576
571
576
577
579
577
581
584
589
590
590
592
588
589
591
590
588
584
581
579
576
572
570
567
562
562
567
566
566
560
561
566
579
592
613
628
641
638
606
562
528
518
522
534
546
558
559
557
561
568
569
570
570
576
577
571
574
574
578
579
581
580
579
577
581
585
586
586
590
591
596
595
598
598
596
595
598
600
598
605
603
601
598
600
603
601
603
603
601
595
589
591
589
586
588
589
589
586
585
585
585
585
586
591
592
589
588
588
586
586
588
588
586
581
583
584
584
588
590
591
589
590
595
597
597
596
596
595
594
590
590
588
582
581
581
574
568
567
565
566
561
561
561
560
560
572
586
603
620
637
637
608
568
531
513
513
523
536
541
542
549
553
553
555
559
559
559
558
566
566
561
560
562
565
567
570
572
571
570
570
571
570
572
577
581
577
577
581
585
580
581
586
588
584
584
585
582
581
580
580
576
574
572
571
567
562
561
560
559
559
562
566
560
555
558
556
558
558
560
559
555
558
562
566
562
557
560
559
555
555
558
557
559
562
567
566
567
571
571
567
569
572
568
561
556
555
549
545
546
546
542
541
535
535
540
541
537
540
550
567
586
603
614
610
589
546
508
494
498
506
513
521
526
533
536
536
541
545
541
542
543
542
541
545
550
550
549
549
554
556
555
557
556
560
562
566
560
559
560
566
566
562
566
570
568
569
569
571
570
569
571
572
569
561
560
558
555
556
556
555
554
555
555
554
552
554
555
553
554
555
552
552
553
552
554
552
553
553
555
553
555
556
554
555
558
560
559
560
567
567
568
572
568
568
566
562
559
559
555
552
552
547
542
540
542
540
535
536
541
543
545
554
568
586
601
616
613
588
547
513
499
502
513
522
532
535
541
543
543
543
546
552
550
549
552
552
549
552
559
565
560
560
567
565
560
568
570
571
572
576
577
579
581
588
588
585
582
588
590
588
582
588
588
586
586
589
585
579
577
580
578
576
572
572
573
569
567
567
568
562
567
568
568
567
567
571
572
572
571
571
569
567
570
570
568
568
570
573
572
576
579
580
578
584
588
588
581
584
581
576
574
572
570
568
562
559
560
561
560
559
561
560
558
558
560
571
592
610
627
633
624
589
546
516
511
514
525
534
541
549
550
549
554
556
553
555
558
558
556
558
561
567
567
566
566
562
566
569
569
568
570
574
578
580
580
580
580
577
581
582
581
581
581
580
579
580
582
580
573
569
570
572
569
568
568
566
561
562
560
555
554
556
560
558
556
559
558
558
556
558
560
556
556
557
558
557
556
556
556
553
553
554
553
554
556
562
568
571
574
572
571
569
570
562
556
553
552
547
543
541
541
541
541
542
543
541
535
535
536
547
562
579
597
605
591
559
514
487
487
497
506
513
519
523
524
525
530
534
534
533
533
533
533
533
535
536
535
536
540
538
536
540
545
548
543
543
546
549
546
547
547
548
552
554
554
555
554
555
556
552
555
554
550
545
542
542
542
535
534
534
532
528
523
528
530
524
523
522
523
521
523
524
519
519
520
523
524
525
524
518
516
519
522
522
522
522
524
528
524
525
528
528
533
535
536
538
536
537
536
534
530
528
525
520
518
519
517
516
512
513
511
509
511
514
526
545
560
581
592
586
556
519
486
473
481
492
497
507
516
521
523
526
528
528
525
526
532
532
532
534
537
540
541
542
543
542
543
549
549
552
550
554
554
556
556
558
561
562
567
562
562
562
565
566
566
568
565
568
567
562
560
559
554
552
552
553
552
552
554
552
552
552
549
552
550
553
554
550
555
556
555
552
555
556
560
559
558
558
558
556
555
555
558
561
568
571
571
571
572
574
572
572
574
571
568
564
560
558
554
550
552
550
550
552
553
552
548
546
554
569
585
604
620
627
606
570
532
502
504
514
523
530
533
536
541
543
546
554
555
554
554
554
554
556
558
561
566
569
568
566
566
567
571
576
572
574
577
579
580
582
585
586
586
590
590
589
595
594
596
595
594
596
596
591
588
584
582
577
574
574
577
576
570
572
574
572
569
568
574
571
571
572
568
569
574
572
570
567
570
570
570
568
570
573
570
571
570
571
572
572
577
582
584
585
584
580
578
577
581
576
567
566
561
559
556
554
554
553
554
556
558
554
559
573
588
608
627
637
622
581
535
509
508
517
530
537
541
543
545
547
547
552
556
559
556
558
559
558
555
555
562
566
568
569
569
567
566
567
569
568
570
574
577
572
576
579
581
577
577
581
581
580
581
582
582
579
577
574
572
568
568
562
558
558
559
558
556
554
556
559
560
553
555
555
556
557
559
556
555
558
559
556
553
556
557
555
554
554
556
555
559
566
567
562
565
568
570
572
571
572
572
570
567
561
556
554
554
553
552
552
552
550
547
545
547
548
550
553
569
588
607
622
622
596
557
518
504
507
514
523
532
540
541
543
547
546
545
546
553
553
550
554
555
552
553
554
555
556
560
562
565
566
566
562
568
570
570
570
569
570
572
576
577
577
579
576
576
580
578
577
572
572
577
571
570
568
562
562
561
562
562
561
566
566
566
565
562
562
562
560
562
566
566
561
565
562
562
566
567
567
560
557
561
566
569
569
570
572
573
576
580
577
576
577
577
577
571
569
566
561
555
555
555
552
547
550
549
550
547
550
554
556
568
581
598
616
627
606
566
526
505
505
511
525
534
541
545
542
545
550
549
549
552
555
554
552
556
558
557
558
561
560
560
559
568
567
566
570
571
568
570
574
577
582
584
584
581
581
580
582
586
582
581
585
584
580
576
576
572
572
569
568
565
562
567
567
568
566
566
566
562
561
565
561
562
567
571
571
562
566
569
568
567
568
570
570
568
568
569
572
577
582
582
580
581
585
590
585
584
580
581
580
578
577
570
564
562
562
559
559
561
561
562
562
566
568
570
585
601
619
633
636
615
577
535
514
525
537
543
550
553
555
561
569
571
568
570
571
572
571
571
577
581
581
584
586
586
584
588
591
591
590
589
592
600
603
605
605
605
604
609
613
609
607
608
608
607
608
613
610
606
601
603
602
597
595
592
590
590
586
590
591
588
584
585
584
584
589
592
589
591
591
592
589
588
589
589
586
589
586
586
585
588
592
595
598
600
601
596
601
605
605
603
600
601
596
594
590
586
582
577
579
578
576
573
576
574
567
569
576
586
601
616
632
645
648
618
580
538
517
522
536
545
546
554
561
567
568
572
572
570
571
571
574
571
574
576
576
574
577
577
577
577
579
581
579
582
586
590
589
590
592
595
596
594
592
589
590
590
596
598
597
594
592
590
586
582
582
582
579
572
572
570
570
570
570
570
568
568
566
562
562
566
570
569
566
565
567
567
566
562
562
562
561
560
556
555
560
562
561
559
562
564
566
570
569
568
566
562
559
556
552
547
547
545
536
533
532
530
529
531
532
526
525
526
541
553
569
591
605
597
561
521
486
474
481
488
494
498
501
511
513
511
511
513
514
514
519
516
514
516
519
519
519
519
523
523
524
529
531
533
528
531
534
535
536
535
538
541
541
542
542
543
546
550
549
547
546
545
543
538
534
535
533
531
528
528
526
523
525
530
533
528
530
528
525
521
524
528
530
530
528
526
524
525
528
528
528
528
530
532
528
526
530
530
533
540
542
540
543
545
543
542
542
540
535
530
523
516
516
513
513
517
514
509
507
509
509
509
513
524
535
547
571
585
577
542
500
470
463
474
486
493
495
500
506
509
508
511
513
516
517
519
517
517
518
514
518
518
519
519
524
523
523
530
532
532
533
533
536
536
540
537
537
541
542
545
543
546
546
545
543
545
545
542
540
533
532
533
530
528
525
524
522
521
523
523
521
522
525
525
526
525
526
525
526
526
526
523
523
525
528
523
522
523
525
528
532
534
534
533
536
541
543
547
546
544
545
542
541
537
537
537
533
532
528
524
524
522
519
522
521
521
519
521
530
546
566
585
601
596
571
533
496
478
485
496
505
512
519
523
528
534
537
542
545
545
545
547
546
547
546
549
550
553
558
559
559
558
565
569
571
572
576
574
572
574
579
581
582
582
584
586
584
589
595
595
592
592
590
586
580
581
579
574
574
573
570
570
571
571
572
572
572
572
576
574
579
582
583
580
577
581
582
585
584
588
584
584
585
588
586
588
594
593
595
597
601
602
601
600
605
605
603
605
604
597
591
590
590
586
586
585
584
581
580
584
586
584
584
600
618
634
652
665
653
619
578
549
545
555
566
576
582
589
592
595
597
600
601
605
605
605
605
606
601
600
605
605
605
610
609
609
613
617
618
620
619
621
626
627
627
627
628
628
629
629
632
632
634
638
632
628
627
627
624
618
618
615
610
607
607
608
606
603
605
609
606
603
605
604
607
608
609
609
608
609
606
605
605
607
608
607
607
605
605
605
606
608
609
613
616
620
625
619
616
616
614
614
613
610
607
605
600
597
595
592
593
591
589
588
588
586
586
600
618
634
648
658
653
619
577
544
537
542
554
566
574
578
580
582
582
585
582
581
584
584
584
586
588
585
584
588
586
582
588
590
586
585
588
590
592
594
590
592
594
597
598
597
595
596
598
594
591
595
592
590
588
585
585
581
577
578
570
566
564
562
559
556
556
556
558
556
556
558
555
552
550
553
553
549
546
547
545
542
544
543
541
542
542
542
546
546
550
547
547
550
549
550
547
543
542
534
528
526
522
518
513
509
512
510
508
507
510
508
507
513
530
545
562
578
582
558
519
476
450
452
461
476
481
485
488
489
488
487
492
493
490
494
494
496
489
494
496
495
495
497
499
499
500
501
502
500
505
507
508
509
509
512
511
509
507
508
509
511
514
516
516
514
509
509
507
507
502
497
493
489
490
493
487
486
486
487
488
485
487
486
486
483
484
483
484
486
488
488
488
488
488
486
485
486
487
487
486
488
493
493
496
501
500
500
501
502
502
499
493
489
487
483
485
483
480
471
475
480
480
481
481
484
496
512
531
552
561
554
519
474
442
441
448
456
464
476
483
485
485
489
490
493
488
495
497
501
504
507
506
506
507
513
516
518
519
524
524
521
524
528
531
528
534
541
541
541
541
545
547
549
547
547
547
547
547
547
543
546
547
543
540
535
533
533
532
533
532
533
532
533
534
535
533
534
534
533
536
536
534
533
536
543
540
540
541
543
546
545
545
549
555
560
561
560
560
557
560
561
562
556
558
556
550
546
549
546
545
543
544
544
545
543
544
543
552
566
584
605
625
632
613
570
533
512
517
528
536
540
542
549
555
558
559
561
562
569
569
570
570
572
577
574
578
578
580
580
580
584
586
586
589
595
597
596
600
598
598
601
601
606
606
605
609
609
610
613
613
609
606
606
605
605
603
598
602
596
597
596
594
596
594
595
595
595
598
596
597
597
598
600
596
597
605
605
598
600
602
601
601
606
608
609
609
609
614
614
617
619
614
614
614
614
609
607
603
597
595
594
590
590
586
584
584
586
585
585
588
601
616
629
648
655
646
613
569
542
535
540
552
562
569
571
576
574
572
577
580
577
572
576
580
579
582
582
584
582
582
585
585
582
584
588
589
590
590
590
595
597
594
595
596
598
600
600
598
598
598
597
596
595
594
595
589
584
582
580
576
572
573
574
570
571
570
570
570
570
569
568
568
567
569
568
568
568
570
569
567
565
567
570
571
572
576
577
577
579
581
581
584
582
579
580
577
577
572
568
562
561
559
556
555
558
556
555
554
552
546
546
552
562
576
589
610
622
606
567
529
506
505
513
523
533
536
540
542
542
542
547
549
548
546
546
550
554
553
554
558
558
559
562
565
561
562
568
570
574
576
572
576
579
581
584
583
584
588
588
588
588
592
589
590
588
585
583
579
574
571
571
568
569
572
571
568
570
571
568
571
574
572
570
566
566
566
567
571
570
571
574
576
577
574
579
574
576
581
584
585
585
584
585
589
592
595
595
594
589
580
573
572
579
580
579
572
568
566
561
562
566
566
567
571
581
596
615
628
641
632
600
556
522
518
529
537
545
550
558
560
562
566
569
572
571
576
576
571
569
570
573
576
576
577
577
580
582
586
590
592
589
592
593
595
596
596
596
596
592
595
603
604
606
606
605
605
604
597
594
590
590
589
582
580
577
572
568
570
576
574
571
571
572
570
570
569
569
568
569
569
568
562
569
569
568
567
566
564
567
568
569
572
572
572
572
573
577
578
577
574
572
568
562
560
554
549
547
550
544
545
543
542
541
542
541
542
552
567
582
603
619
610
578
534
502
494
497
506
514
521
525
530
533
536
537
536
535
536
541
545
543
545
547
545
545
546
543
544
543
545
545
546
550
552
553
554
560
558
556
554
555
555
555
558
558
553
553
556
556
554
547
541
543
545
541
535
535
533
530
530
526
525
525
526
523
523
522
519
522
524
528
525
528
528
525
524
523
521
524
523
521
521
526
528
532
535
536
540
538
542
537
535
532
530
524
518
514
513
512
509
507
512
512
506
506
512
511
519
533
549
567
581
586
571
533
495
468
470
476
485
496
502
507
509
509
510
511
514
516
514
514
518
521
518
523
526
532
531
528
526
528
532
530
534
535
535
535
537
542
545
545
548
548
546
547
553
550
550
550
552
546
547
545
540
537
537
535
533
532
532
530
531
526
530
530
529
531
530
532
530
530
535
535
534
531
532
535
534
532
536
537
540
541
546
550
549
549
553
558
555
556
558
558
554
552
549
547
545
541
536
536
533
533
534
532
533
533
534
533
537
552
569
589
609
620
604
564
522
495
496
507
518
524
528
531
537
542
541
543
547
549
547
549
546
543
547
550
554
554
555
556
557
560
561
567
569
570
569
569
569
571
574
578
581
580
581
588
592
589
591
592
590
584
584
584
579
576
576
578
577
570
568
568
568
571
572
573
570
571
572
571
569
571
572
574
576
579
578
577
579
581
580
580
581
585
588
586
588
592
596
596
598
601
600
601
601
598
593
590
586
581
578
574
574
576
574
571
572
576
576
571
582
596
612
627
644
649
628
588
554
534
535
545
552
560
565
570
571
576
576
577
579
580
582
580
582
582
584
589
594
595
595
594
596
596
600
601
602
605
606
608
608
608
613
610
613
615
618
619
618
615
615
616
617
613
610
608
602
596
594
592
594
594
590
589
586
586
589
586
584
586
586
585
588
591
586
582
585
586
585
584
582
585
584
580
577
585
590
590
592
592
594
595
594
592
590
588
588
588
581
579
581
580
574
569
568
569
571
570
568
567
562
561
566
578
591
608
627
642
629
594
554
523
518
528
537
543
550
555
556
556
556
558
556
560
567
562
560
561
559
561
561
566
570
569
570
570
571
576
577
579
581
584
581
582
581
582
586
589
590
588
586
585
588
586
585
586
585
585
581
577
574
568
569
569
567
559
561
560
558
560
561
566
561
560
559
562
561
562
561
567
568
568
562
558
558
559
562
567
568
569
571
576
576
577
580
581
579
580
580
574
570
569
565
559
555
553
550
549
549
550
547
546
549
549
547
555
569
584
600
619
625
603
562
521
501
506
519
526
535
537
540
541
545
547
546
552
556
556
556
556
556
555
556
561
562
561
560
561
566
566
567
569
571
576
574
576
576
579
580
577
577
580
582
584
586
586
586
586
581
582
579
572
570
568
566
566
566
565
561
559
558
557
559
562
562
564
559
558
559
560
561
560
558
562
566
566
561
560
559
559
559
562
567
571
576
578
578
579
580
579
576
572
571
571
568
561
557
558
554
549
553
553
553
553
553
552
553
558
568
584
601
621
631
620
585
545
514
507
514
523
535
538
544
547
543
550
554
556
555
555
557
556
558
556
560
566
567
569
570
576
576
572
572
576
577
581
582
586
584
589
595
596
594
589
594
597
597
598
596
595
596
592
589
589
589
588
585
580
580
584
581
576
572
578
582
580
581
581
580
578
577
582
585
584
584
586
586
585
588
590
590
596
598
600
601
603
606
607
609
614
618
616
614
614
610
607
604
603
603
594
592
594
590
589
586
586
586
585
585
585
594
609
629
651
664
666
641
600
559
541
543
554
560
561
567
570
572
578
579
579
581
582
584
584
584
588
589
588
590
590
586
586
588
592
593
596
596
596
600
601
603
600
600
598
598
602
598
597
601
605
606
603
605
605
601
593
592
592
590
585
582
582
582
579
578
576
574
572
572
571
571
573
576
576
572
572
572
571
568
562
569
570
566
566
570
572
571
572
579
580
581
581
576
576
579
577
573
570
562
560
553
552
552
554
552
547
545
546
546
545
541
545
556
572
592
613
624
619
585
538
499
486
494
506
513
514
521
526
530
532
532
532
532
533
534
532
530
532
534
532
530
533
536
537
536
538
542
542
543
545
543
545
546
546
546
552
554
552
553
552
554
554
553
549
552
550
546
544
543
537
534
533
532
532
529
526
531
530
528
526
524
525
526
525
525
526
526
528
528
525
530
532
529
532
530
529
528
531
532
534
535
535
542
543
542
543
543
536
535
533
533
528
524
522
519
516
513
513
514
513
514
519
518
519
528
549
568
586
598
588
553
506
476
473
482
487
495
507
509
514
518
519
519
519
518
522
521
526
526
526
525
526
529
534
534
534
535
536
540
541
541
545
547
549
549
550
552
554
555
554
556
557
559
559
559
557
555
553
552
550
547
545
540
541
543
540
538
540
542
536
535
540
542
541
541
541
543
546
546
544
545
545
543
547
547
547
543
547
553
554
555
556
561
566
569
569
571
570
570
567
567
567
566
558
553
552
554
554
552
554
555
554
552
552
550
555
562
581
601
624
628
616
580
537
514
517
522
530
541
546
550
553
555
558
558
560
565
561
560
565
566
568
568
569
570
571
571
571
576
581
582
582
581
584
588
589
593
592
589
592
595
595
596
595
596
596
598
600
600
596
598
595
589
586
582
580
578
578
578
577
578
579
576
576
570
572
572
577
579
577
578
580
580
577
577
576
577
580
580
581
581
584
586
588
588
594
592
595
594
595
595
592
590
589
585
579
576
570
569
567
562
565
562
559
558
561
555
556
571
586
601
616
633
629
600
559
523
513
514
528
540
542
545
549
552
552
553
555
554
557
560
559
558
558
559
562
562
562
567
570
570
571
570
570
571
576
577
582
584
583
582
582
581
582
581
580
582
585
584
584
585
582
584
580
572
569
569
568
561
558
559
560
558
556
558
556
558
559
558
558
558
558
561
559
556
558
558
560
560
561
562
560
562
568
568
571
572
577
577
577
581
581
574
576
576
571
570
567
561
553
553
554
555
555
552
550
550
547
543
552
561
572
588
605
622
625
598
561
519
502
505
521
530
536
543
543
546
547
547
552
552
554
556
560
558
556
554
555
561
562
557
558
558
561
561
566
567
568
570
571
569
570
570
572
572
577
576
572
576
580
581
582
580
576
574
571
569
569
568
561
559
556
554
555
558
558
556
556
556
559
558
556
558
558
558
558
556
557
554
560
561
567
562
561
566
567
562
566
568
571
574
574
571
576
577
579
576
572
570
569
568
566
560
559
556
553
549
553
553
549
550
554
553
553
559
574
588
603
620
625
603
561
523
502
505
516
526
533
540
545
552
554
555
558
558
555
556
558
562
561
558
561
567
566
568
569
568
570
576
574
570
572
576
580
581
582
585
586
589
586
586
585
586
589
589
589
592
588
584
576
577
578
579
576
569
568
569
571
567
566
567
562
562
560
559
558
559
558
560
559
562
567
568
562
560
558
559
560
561
561
560
556
556
566
568
567
569
569
572
576
574
576
576
572
570
562
555
555
553
553
550
545
548
547
546
546
545
543
543
548
560
577
596
615
626
610
570
531
505
502
509
519
530
535
537
545
546
543
545
546
548
547
547
548
549
554
555
556
556
558
561
562
564
562
566
568
569
571
571
577
579
581
582
584
584
585
586
582
580
584
586
586
586
585
584
580
576
572
571
568
566
566
562
558
561
562
560
558
562
566
561
561
565
567
567
566
565
566
562
561
562
561
561
560
562
560
559
562
567
570
569
571
571
573
572
572
571
570
570
572
571
567
567
571
579
582
588
595
601
615
633
649
667
688
715
737
747
752
752
729
681
618
561
528
511
505
500
495
490
488
488
487
487
488
488
486
481
481
483
480
478
477
478
474
474
471
471
473
469
468
470
468
466
470
476
478
480
485
489
494
501
504
509
519
525
535
541
546
549
553
554
558
559
559
556
558
559
560
561
561
558
557
554
558
561
559
559
562
566
562
560
561
565
562
562
560
560
559
560
559
561
566
567
571
570
570
572
577
581
579
579
579
579
576
569
567
561
556
555
554
553
552
550
549
546
547
553
552
550
554
567
585
603
616
620
598
557
517
502
504
512
524
533
535
537
543
542
543
546
547
549
546
547
549
555
555
556
555
559
559
559
560
566
562
568
568
567
569
571
574
576
571
574
582
580
581
584
584
581
577
579
580
577
576
576
574
570
562
559
556
558
559
558
556
556
556
556
556
555
556
554
555
560
560
559
559
558
558
559
557
557
556
555
555
558
559
559
560
566
569
569
569
571
570
571
571
571
569
569
567
559
553
547
553
554
550
546
546
547
546
546
547
547
550
562
580
597
614
620
604
566
522
495
496
506
519
528
535
535
543
545
545
544
546
546
549
550
555
556
555
552
553
555
555
555
559
560
560
559
560
561
561
567
568
576
576
573
576
574
576
577
579
579
577
576
574
574
570
568
568
565
561
560
562
558
555
554
552
552
550
554
554
553
553
552
552
552
553
552
554
556
556
559
559
559
561
561
561
560
559
561
568
569
568
567
567
571
574
572
574
577
579
574
568
566
562
561
556
555
555
554
552
549
549
547
543
546
552
559
574
592
610
624
620
591
552
512
501
511
522
532
540
542
547
550
550
550
552
555
558
558
556
556
562
560
559
560
562
566
566
567
566
569
576
578
584
581
581
586
592
585
588
591
594
592
593
595
595
594
592
590
592
592
589
585
585
577
576
569
571
571
571
571
569
568
570
571
570
570
570
569
569
570
571
572
571
571
572
569
569
570
568
569
570
570
571
572
572
578
580
584
588
590
582
584
582
583
578
573
572
570
561
560
560
559
559
559
558
555
553
553
554
562
577
595
615
631
634
607
568
528
508
513
524
532
536
547
550
550
555
558
558
559
559
561
561
558
562
568
568
571
573
574
572
571
572
572
574
576
580
586
585
585
586
585
589
588
589
590
589
589
595
598
596
593
590
589
583
580
578
577
576
572
574
571
571
571
570
570
568
571
571
570
570
569
569
571
572
572
572
572
574
576
573
571
573
579
577
580
585
586
581
579
585
590
594
595
596
595
592
589
588
584
580
580
580
579
579
572
571
571
569
568
571
569
571
586
603
619
641
655
648
609
568
532
523
532
544
553
561
567
567
567
564
562
569
571
573
572
576
576
572
574
581
583
583
582
582
580
580
582
582
585
586
589
589
592
596
597
595
594
595
600
601
600
601
605
604
605
602
603
598
592
586
584
581
582
580
581
582
581
580
577
579
580
585
586
584
582
582
588
589
589
582
582
584
584
584
580
583
591
596
595
595
598
600
600
603
608
610
608
609
608
605
600
598
596
589
582
581
582
581
580
580
579
576
573
572
577
586
601
618
638
654
655
634
592
550
528
532
540
546
558
562
565
564
566
568
568
571
572
574
574
577
578
574
574
572
579
580
579
585
586
586
586
585
589
594
590
593
600
598
600
596
596
596
601
601
596
598
598
598
596
595
594
590
585
581
581
577
576
574
576
576
574
572
571
571
570
572
572
572
571
570
570
572
574
570
569
568
569
569
572
569
570
570
572
572
572
572
577
581
580
577
577
579
578
577
573
567
566
560
559
554
552
555
554
552
548
546
546
546
554
568
584
606
627
634
615
573
532
505
506
512
523
528
533
535
540
545
552
550
552
555
554
554
554
555
555
558
561
566
562
562
564
562
566
571
574
576
579
580
579
581
584
584
584
586
586
586
589
589
592
591
589
585
585
584
577
577
579
574
572
571
569
568
568
570
567
566
567
566
567
566
562
560
566
561
559
565
566
562
560
561
558
556
555
560
561
562
566
567
562
567
569
577
576
571
574
576
569
562
561
561
558
555
555
545
543
543
547
546
541
542
545
542
548
560
579
597
610
616
594
549
508
494
497
507
516
523
525
530
532
535
535
534
536
538
537
536
537
537
534
535
537
542
541
543
544
546
549
550
553
552
553
555
558
558
560
560
559
561
558
561
561
561
566
567
566
560
559
555
554
552
550
546
542
541
540
534
534
535
540
542
540
537
535
535
535
535
536
540
541
540
537
541
537
540
542
542
540
535
535
535
542
547
552
550
549
553
554
553
552
552
549
546
543
540
540
537
534
536
533
533
533
528
525
525
528
533
540
553
569
582
600
597
569
529
494
480
484
496
502
508
514
521
521
519
522
522
523
525
526
532
532
532
532
528
528
528
535
537
535
542
546
546
543
544
552
550
549
549
553
554
554
554
559
557
560
564
562
561
560
561
556
554
555
556
550
545
546
546
545
544
546
546
545
547
553
552
552
552
552
555
552
554
560
558
556
558
556
557
555
558
560
560
562
569
572
572
574
577
584
586
586
589
588
588
585
585
584
578
577
572
569
569
570
571
569
567
568
569
568
571
580
591
607
627
644
649
629
590
549
530
533
542
554
560
562
573
580
579
582
583
585
588
591
592
595
596
597
596
597
598
601
603
601
601
605
607
609
609
608
614
618
622
626
625
620
625
626
626
624
622
627
633
632
634
632
627
620
621
619
619
616
617
616
612
606
608
614
614
615
618
618
617
616
615
614
613
613
616
622
622
619
618
620
618
618
618
617
616
618
620
620
619
625
628
630
636
634
636
633
632
627
625
619
616
614
610
610
607
606
603
600
602
602
598
597
601
613
629
643
658
667
655
627
589
552
542
549
557
566
570
576
581
584
583
584
584
584
581
584
585
582
582
585
585
584
584
586
588
589
588
588
592
588
589
589
589
594
596
596
594
595
592
597
598
598
597
596
593
591
588
582
580
579
574
571
569
567
562
561
559
559
560
561
562
566
560
561
561
561
559
555
555
558
556
553
553
554
555
550
547
549
548
545
540
544
544
544
547
550
554
556
558
558
555
552
552
550
546
545
541
535
533
532
535
529
528
533
535
532
532
535
534
537
552
570
588
608
617
605
568
526
496
494
505
511
522
528
526
526
532
537
541
545
545
546
543
545
549
550
548
553
556
558
558
556
556
554
556
564
568
568
567
567
567
569
570
572
573
570
574
574
576
574
571
569
568
567
567
568
562
561
559
560
556
552
552
552
550
552
547
550
549
547
546
545
542
546
547
547
545
545
550
546
545
543
540
536
536
536
537
535
538
547
547
543
546
552
550
552
555
555
552
546
541
535
531
524
524
523
522
521
519
524
523
522
522
523
525
537
558
577
594
603
590
555
508
478
480
489
494
505
511
516
519
521
524
530
526
524
528
528
533
535
536
535
533
533
537
542
543
545
545
546
546
550
554
554
554
555
555
554
556
560
561
559
558
562
562
562
562
558
555
550
552
549
545
546
545
541
541
541
537
538
537
537
534
532
532
533
534
533
534
540
535
535
541
542
540
537
536
537
540
535
532
534
536
537
537
536
537
544
549
552
552
555
555
552
545
542
542
540
533
528
526
525
524
524
522
521
519
521
518
516
516
523
540
558
577
596
596
567
526
488
469
471
487
497
502
505
509
512
514
517
517
522
519
522
523
525
524
525
526
525
526
532
533
533
533
533
538
541
542
545
547
547
546
544
547
546
550
554
555
553
555
556
558
553
552
553
547
546
542
537
538
535
535
536
532
528
532
533
532
532
535
535
534
537
537
537
536
541
542
537
536
536
540
537
533
535
540
537
537
537
540
537
541
545
549
552
553
554
555
555
550
552
552
550
545
543
540
536
533
534
536
535
538
536
535
534
536
543
556
572
594
607
612
588
549
514
494
496
509
518
524
533
536
541
541
540
545
552
552
550
555
554
554
557
559
559
561
566
566
566
564
567
570
571
573
578
577
578
580
580
581
584
590
588
586
584
582
588
586
585
585
584
579
579
579
574
574
572
570
566
561
558
560
562
561
567
566
562
562
567
566
565
567
569
568
566
566
567
566
562
564
566
568
567
567
568
566
568
571
574
577
576
579
582
584
586
585
584
581
581
580
577
574
568
562
559
559
560
560
558
557
556
554
556
559
567
580
592
613
629
632
598
566
532
516
519
525
535
541
543
546
550
553
554
560
560
559
560
565
562
568
567
565
568
570
571
570
569
566
569
572
577
577
577
579
581
580
580
582
582
581
582
581
588
586
589
589
589
590
586
582
579
574
574
571
562
561
568
568
567
562
564
562
559
561
566
560
556
560
561
559
556
560
562
560
559
562
562
560
561
560
556
554
554
555
555
555
558
562
561
560
568
568
566
562
562
562
557
555
552
545
544
542
540
533
531
530
530
532
529
525
526
522
528
545
560
574
595
603
588
553
507
481
476
487
496
507
512
513
514
516
519
518
519
522
524
525
526
526
526
529
530
530
532
534
533
533
532
534
540
536
541
545
547
549
550
553
553
552
553
552
552
553
554
558
555
552
550
550
547
546
548
546
545
542
537
540
536
533
536
535
535
535
536
533
534
535
540
544
540
540
542
542
541
538
537
537
540
540
536
536
537
542
545
546
550
553
550
550
558
570
568
562
562
556
552
553
556
554
549
548
547
543
540
541
543
542
543
543
542
547
558
579
600
620
626
606
564
523
499
496
508
518
524
526
537
541
542
546
549
552
552
555
556
556
555
559
559
559
558
562
567
570
569
571
569
570
571
576
577
580
584
585
582
582
581
581
584
586
592
591
589
586
589
591
592
589
588
581
577
576
574
571
570
570
570
569
568
570
574
572
571
574
572
572
574
574
573
573
572
576
576
572
574
576
574
574
571
572
571
577
584
581
581
585
588
589
591
590
588
586
581
577
576
571
568
565
562
566
561
562
561
555
553
556
560
571
586
604
626
638
639
618
579
542
521
522
530
536
545
552
552
552
558
555
556
560
561
566
566
568
568
567
568
568
568
569
566
569
576
574
572
574
581
584
584
586
586
585
586
586
588
588
588
588
591
590
591
590
589
588
588
589
582
579
576
576
572
570
570
571
570
569
569
568
569
568
571
576
572
571
573
572
574
574
576
576
576
573
574
570
570
571
579
580
580
585
589
586
586
590
590
589
588
588
586
585
581
578
573
569
569
570
569
567
569
568
564
567
568
571
578
594
614
636
651
653
625
582
542
531
540
550
552
556
566
572
576
574
577
577
579
581
580
581
580
582
582
582
584
588
589
591
594
595
596
600
606
608
607
604
608
607
608
615
616
616
618
618
624
621
618
616
619
619
614
613
609
608
606
606
603
600
598
601
603
598
598
597
593
592
594
594
594
594
592
593
594
597
597
597
596
594
595
592
588
590
591
588
594
593
592
594
596
601
602
605
603
601
596
594
592
586
584
579
572
573
571
570
569
566
561
562
566
567
569
579
603
620
638
644
622
581
542
519
518
529
537
542
544
550
552
555
558
562
560
559
559
558
561
562
561
561
562
561
564
568
568
560
566
570
570
571
572
571
572
579
581
580
579
576
574
581
581
580
580
576
569
571
570
570
566
567
566
558
553
554
555
552
550
547
548
547
546
545
543
545
547
543
541
545
547
545
543
545
546
547
543
544
542
541
536
537
542
545
545
549
553
553
555
559
560
556
555
553
550
545
538
535
535
533
529
530
530
530
532
532
528
524
526
531
540
554
574
594
597
577
535
500
478
480
490
497
505
507
510
508
514
517
521
519
519
518
522
523
523
525
526
526
528
531
531
526
529
534
536
536
541
543
541
543
546
548
544
545
547
549
550
554
555
555
552
549
548
545
542
537
536
532
526
528
526
523
521
524
525
522
522
525
525
525
525
526
526
524
526
530
532
532
529
529
528
526
526
528
528
523
528
535
536
535
537
540
542
547
547
546
543
542
541
540
536
535
532
526
525
523
524
524
521
521
522
521
517
522
536
552
567
583
595
588
570
523
490
484
488
497
507
512
516
522
522
526
533
534
537
536
536
537
540
542
546
549
547
546
550
554
550
552
555
560
559
558
561
566
566
570
572
572
571
571
571
571
571
571
577
574
576
577
577
574
572
572
567
561
560
562
559
557
557
555
558
557
556
561
561
561
561
561
560
561
562
564
561
562
566
570
568
566
566
567
568
571
574
576
581
586
589
588
584
581
582
580
572
570
570
568
562
562
560
558
554
555
555
555
556
556
556
562
577
591
608
622
634
622
588
545
517
516
524
535
545
552
549
554
561
561
560
560
562
566
566
567
568
568
570
573
577
576
576
581
581
580
579
580
580
584
585
589
590
590
589
594
595
596
598
598
596
594
596
595
594
592
596
592
586
585
581
580
572
572
574
572
572
572
576
572
570
576
577
576
573
579
577
576
576
576
570
572
574
572
573
572
572
576
579
577
581
586
589
588
588
586
582
584
582
585
582
574
570
570
568
562
560
558
559
557
555
555
549
548
555
570
590
607
625
637
629
595
553
517
507
513
522
528
535
542
542
542
542
546
547
546
552
553
553
552
555
557
556
557
556
555
556
560
561
562
566
567
567
565
562
567
569
571
570
571
574
572
570
571
572
577
579
577
576
572
567
566
561
558
555
557
556
554
547
547
550
552
549
552
553
553
554
555
552
552
553
556
553
555
559
560
555
555
556
560
558
556
560
567
567
567
569
571
569
568
570
572
568
569
562
554
550
547
546
545
541
543
543
542
543
545
546
552
567
582
600
620
634
622
585
541
507
504
514
522
530
533
537
543
547
548
547
550
553
552
552
554
559
555
555
559
565
566
567
566
567
569
571
574
570
574
578
579
581
581
581
580
582
581
584
588
589
586
589
588
588
585
582
581
580
576
574
571
571
567
565
561
560
560
561
562
560
559
557
560
559
560
562
561
561
560
561
560
559
562
568
566
561
562
568
568
570
572
576
576
576
578
576
573
574
573
569
562
561
559
558
553
553
556
556
555
555
554
553
554
562
576
593
613
632
637
613
570
531
508
513
521
530
536
543
546
550
553
557
557
559
556
557
560
560
560
560
564
567
566
568
572
574
571
574
578
579
580
581
585
585
582
584
586
586
588
589
592
592
590
590
595
594
592
590
589
585
581
581
576
570
568
569
569
569
569
569
569
569
571
576
572
570
568
568
568
569
570
570
568
566
562
560
565
564
571
574
577
579
580
578
582
582
581
581
579
578
572
569
568
567
561
560
557
555
550
549
545
549
547
546
546
554
566
581
601
625
629
610
573
529
506
506
518
526
531
535
542
543
541
543
547
547
549
552
552
552
552
554
554
555
555
556
560
558
556
559
561
561
569
569
570
579
580
580
579
580
581
579
574
576
580
580
580
581
582
579
571
570
570
567
565
560
556
555
558
557
556
553
553
558
556
554
555
556
555
555
555
558
558
557
555
555
554
556
557
558
561
562
567
567
569
572
576
577
576
572
572
572
571
568
561
556
552
550
550
553
552
554
554
550
549
550
553
556
566
577
595
615
625
612
577
535
507
508
522
532
537
545
546
543
543
552
554
555
561
564
560
561
566
568
569
569
571
570
569
567
571
582
581
584
585
588
589
589
588
586
592
596
598
600
597
596
598
601
601
603
603
598
597
598
595
592
589
585
584
582
584
585
585
585
584
588
589
588
586
590
594
590
589
589
589
590
594
592
592
596
601
598
596
592
595
595
596
600
598
602
606
608
608
608
609
610
616
614
607
601
596
593
592
592
591
589
588
585
585
584
585
588
590
598
609
622
636
652
661
638
598
555
533
535
545
556
570
574
574
579
582
580
580
582
582
581
582
582
582
582
584
584
586
590
588
589
594
592
589
596
598
595
596
596
596
597
601
604
606
603
606
609
609
606
606
606
603
597
596
594
589
584
580
581
579
579
580
577
571
571
574
576
576
576
578
576
571
570
574
572
569
569
571
570
569
570
568
568
570
569
571
572
576
578
577
577
577
578
582
581
584
584
582
580
576
572
567
560
556
555
553
552
550
552
552
550
547
547
554
562
581
600
615
624
608
570
529
500
497
506
513
517
526
532
536
538
540
542
538
542
542
541
542
543
541
538
541
544
546
545
544
546
549
547
549
549
550
554
555
558
554
553
555
555
555
556
558
561
561
561
559
558
556
555
553
549
546
544
542
537
534
532
532
530
530
530
530
528
530
533
533
528
530
533
533
532
531
532
526
525
525
531
528
526
526
528
526
530
533
534
535
536
544
545
543
542
543
543
540
535
535
532
526
523
524
522
522
521
520
518
514
516
517
519
531
547
568
582
598
595
561
522
489
475
475
485
498
509
511
516
519
523
524
525
529
526
524
524
525
525
526
533
537
537
540
541
542
541
542
543
545
545
549
552
549
547
550
553
552
554
558
559
559
560
560
562
559
559
558
553
550
549
547
546
542
535
537
541
542
542
541
541
540
540
541
537
536
540
541
536
534
541
546
543
541
543
544
541
542
543
542
541
543
547
546
547
550
554
555
555
557
560
558
553
552
547
544
538
532
530
532
532
530
528
530
528
526
526
531
545
559
581
603
615
608
574
535
502
489
496
505
508
516
523
525
530
533
532
530
534
537
538
536
540
540
541
541
543
543
546
549
550
550
549
555
555
555
558
561
564
566
568
570
570
569
568
568
571
571
570
572
570
567
566
566
567
560
559
559
554
549
547
552
549
545
548
550
552
547
546
548
550
546
554
555
553
550
554
553
554
553
552
547
546
547
552
550
553
555
560
560
564
567
566
567
562
567
569
560
555
553
550
548
547
544
541
541
545
545
541
540
541
540
550
560
577
596
614
619
601
564
521
497
500
509
518
524
532
534
535
540
545
543
544
546
549
553
550
554
555
554
555
556
557
556
557
559
560
561
566
571
576
572
573
577
576
574
577
582
578
577
580
581
580
577
579
579
574
577
577
571
566
560
561
561
556
556
556
555
555
558
556
555
555
555
557
556
554
555
556
556
557
560
559
558
559
556
555
554
555
555
559
561
568
571
568
567
576
577
576
577
581
581
572
568
566
560
558
557
555
553
546
547
550
546
545
547
545
547
557
573
589
607
624
620
588
545
508
498
507
514
526
534
537
538
540
541
545
546
547
552
552
552
549
554
552
553
558
556
554
556
561
566
560
566
571
572
576
579
574
574
578
581
581
581
580
577
577
580
580
582
581
578
577
574
570
566
564
568
567
565
568
561
558
558
560
560
558
555
558
559
560
559
559
559
561
561
566
567
561
561
566
565
561
560
562
560
566
568
569
570
572
574
576
576
580
585
581
583
584
581
579
571
568
568
567
566
559
555
553
558
557
559
556
553
556
559
568
582
598
615
628
627
596
549
513
509
518
530
536
541
545
547
554
556
558
556
556
560
561
561
562
566
566
566
567
562
568
567
569
572
576
577
580
581
582
581
582
585
589
590
591
591
589
589
590
589
589
589
590
588
588
584
580
576
572
572
570
569
569
570
568
566
565
561
565
567
567
568
566
566
566
568
567
568
568
566
566
562
566
566
567
566
567
562
560
562
567
569
570
574
578
579
579
582
582
580
579
580
578
574
572
570
567
559
557
560
561
558
559
553
554
552
553
552
560
576
589
614
629
627
605
564
529
507
509
519
528
533
542
552
555
555
555
556
554
553
555
558
558
559
564
559
556
559
561
561
567
571
574
577
576
576
577
576
574
577
581
583
584
586
585
582
580
585
588
588
586
584
582
581
576
572
571
564
566
562
562
559
558
558
559
561
562
561
558
559
559
560
558
558
558
560
558
559
560
559
555
557
556
556
556
560
559
559
559
561
562
567
567
572
579
577
576
577
571
570
569
568
569
561
558
558
554
553
550
552
552
550
553
550
548
552
560
580
598
619
636
639
619
578
541
516
518
528
540
545
552
559
566
567
569
570
576
576
581
582
582
583
581
582
589
592
590
590
589
588
591
595
591
590
596
598
598
595
597
597
598
603
606
603
597
598
600
601
600
600
601
597
588
584
581
576
570
571
572
572
569
570
568
561
561
567
562
560
559
560
560
558
558
561
562
560
559
559
556
554
552
547
547
547
552
550
552
552
554
559
560
558
559
561
566
567
566
561
556
554
553
547
543
545
543
542
540
537
535
534
530
534
534
535
541
555
576
592
608
619
601
564
523
494
489
497
506
516
519
525
532
533
533
532
537
540
540
540
545
545
545
545
547
547
545
546
549
553
558
561
561
561
562
568
569
569
568
570
576
571
571
578
581
580
578
584
582
579
580
577
574
568
567
566
561
560
560
558
555
553
555
556
553
553
554
553
553
554
556
554
552
553
556
558
560
560
556
555
554
556
553
550
554
553
554
554
560
566
566
566
566
571
572
572
571
568
560
559
556
553
547
546
546
545
546
546
547
549
545
545
546
556
570
586
607
622
618
588
549
511
498
505
513
520
528
535
541
543
542
544
545
545
549
552
555
554
554
556
558
559
566
567
562
568
568
570
576
577
581
585
585
588
592
595
595
596
597
598
596
597
601
601
600
603
606
606
600
598
597
591
586
585
586
588
586
586
582
584
584
588
589
589
590
590
588
586
590
590
588
589
595
592
589
589
589
594
592
590
593
597
595
595
601
606
605
605
609
614
614
610
608
601
603
606
603
595
592
590
589
589
588
586
585
580
579
579
578
581
593
609
626
641
660
658
628
585
552
538
543
550
556
566
568
572
579
581
584
584
582
585
584
581
582
585
588
589
592
588
586
588
592
592
595
596
597
600
598
601
605
604
605
607
607
609
610
609
606
603
607
606
604
598
600
597
594
590
588
585
581
581
580
576
577
574
574
572
574
569
568
571
571
571
572
574
576
572
572
572
571
571
569
569
566
567
568
569
568
570
570
572
576
579
576
580
581
582
581
579
577
571
570
567
566
558
554
550
546
545
545
547
552
553
546
547
550
560
572
589
607
618
618
588
547
509
496
500
512
522
530
534
541
542
545
543
543
543
546
547
545
545
546
546
547
547
549
552
554
554
554
553
554
556
557
560
560
561
569
568
569
569
570
570
571
573
579
579
576
571
570
568
570
568
561
559
559
560
558
555
556
556
556
553
552
553
552
549
553
555
552
550
553
558
558
561
558
562
561
560
560
558
555
556
556
556
558
560
562
567
568
570
582
584
581
581
579
572
568
567
559
554
554
554
555
553
550
550
553
550
548
552
555
561
571
583
602
619
625
600
560
519
502
507
514
525
536
542
545
545
543
547
552
555
555
555
554
555
559
558
555
556
560
561
558
567
570
568
562
562
568
569
571
570
572
574
574
579
582
579
580
584
581
579
580
581
582
581
572
568
564
562
561
560
559
559
559
556
555
556
552
555
554
555
556
554
554
553
555
554
555
558
559
557
555
559
560
554
553
555
555
555
558
559
559
558
561
566
567
568
568
570
568
567
566
560
553
547
545
543
542
542
541
537
538
540
538
536
541
552
571
592
609
622
610
577
534
499
493
501
512
521
523
526
532
535
537
536
537
533
534
536
541
541
542
542
541
544
546
549
547
546
543
545
550
554
552
554
558
560
561
559
558
558
561
562
567
567
568
565
567
562
560
555
549
550
553
553
550
545
542
542
541
540
542
543
543
543
540
540
540
537
540
542
542
541
540
540
538
540
540
537
534
535
536
541
540
540
540
542
545
547
553
552
552
552
552
554
554
552
550
549
543
537
540
536
533
530
535
533
534
530
530
530
540
547
567
586
605
619
614
581
536
500
489
497
507
512
521
525
530
535
538
541
542
543
543
546
546
545
549
546
549
550
550
552
554
556
556
556
558
558
559
562
566
566
562
568
567
568
570
574
574
577
574
574
572
572
570
569
569
567
567
561
562
561
559
556
555
558
558
555
553
555
555
554
556
558
554
554
555
555
559
559
558
558
558
556
558
558
556
555
555
559
561
560
564
569
570
571
571
570
572
571
570
562
558
554
553
552
549
550
546
545
541
541
543
542
541
542
546
560
576
594
614
622
606
571
529
497
494
502
514
526
532
535
542
545
547
547
547
547
547
550
553
550
553
558
561
560
560
566
567
568
571
578
578
577
581
584
585
586
589
594
596
598
600
598
598
601
604
604
605
606
604
601
600
596
595
593
592
590
588
584
583
586
581
580
584
586
585
584
582
582
582
581
584
584
584
586
588
585
584
582
585
585
588
588
586
589
594
596
596
598
601
600
605
605
605
600
598
597
595
594
590
586
584
579
578
577
576
577
579
577
577
579
586
600
617
639
653
646
609
567
536
526
537
546
554
559
561
566
566
566
567
570
566
566
568
569
568
572
574
573
572
570
570
574
570
574
577
579
580
580
582
582
585
589
589
589
586
586
589
589
592
595
594
594
595
588
582
584
581
581
579
572
570
568
569
569
569
569
568
566
562
561
560
561
562
561
558
559
559
558
559
561
562
562
561
560
560
560
558
558
559
560
561
566
567
568
567
567
566
566
568
567
562
559
556
554
552
546
545
545
543
536
536
537
535
535
536
541
557
570
589
607
616
601
568
526
499
496
506
514
521
526
532
534
537
537
541
541
543
545
543
545
545
550
550
550
552
559
558
558
559
561
565
567
569
569
569
569
571
572
571
577
579
577
579
579
581
582
582
581
580
577
576
570
569
567
568
562
558
559
558
556
558
555
555
554
553
555
555
554
553
552
554
556
555
555
558
556
554
554
554
553
552
553
554
555
556
556
560
560
565
568
569
566
569
568
567
560
558
559
556
553
549
549
547
542
542
540
537
538
542
542
546
556
573
590
608
615
601
565
526
504
495
507
516
522
530
534
536
535
537
538
543
543
541
546
549
550
550
547
550
552
553
556
555
555
559
562
560
561
567
567
571
571
571
572
574
576
576
576
572
577
580
580
577
577
576
570
571
570
568
562
560
561
562
562
559
558
558
554
555
558
555
553
553
552
552
554
559
561
558
555
554
555
559
556
554
556
556
558
562
562
566
570
571
572
571
570
571
570
567
567
566
566
558
555
554
549
546
545
546
541
543
545
546
545
554
570
592
609
627
637
615
577
536
512
507
517
526
534
542
546
544
545
546
552
556
558
556
558
558
556
560
562
568
568
566
562
569
569
571
572
572
576
577
581
582
582
583
585
586
585
585
585
588
584
588
590
588
586
585
586
582
581
577
576
572
574
573
570
567
567
567
566
568
569
570
568
570
569
568
569
570
573
576
571
567
569
571
571
572
572
576
576
577
577
574
572
576
584
590
592
589
582
585
584
579
571
568
568
566
561
560
558
555
555
557
556
558
559
567
585
606
624
637
639
610
568
529
517
519
530
537
537
547
550
556
556
553
556
560
561
562
566
562
561
562
567
570
569
571
576
579
577
576
577
579
581
585
586
588
586
586
589
589
589
593
594
595
598
595
590
594
594
592
590
588
581
579
580
576
574
573
573
572
572
571
570
572
570
577
579
577
577
576
577
580
579
580
577
574
576
578
574
572
577
574
577
581
585
590
594
590
592
594
592
590
589
590
588
586
584
580
572
569
570
570
569
568
567
567
564
560
562
568
582
601
624
642
651
632
594
552
522
524
535
545
550
555
558
558
566
566
567
566
567
567
569
572
569
569
572
571
572
572
576
579
578
574
574
579
586
589
588
589
586
584
581
589
589
590
592
592
592
589
592
590
590
586
583
580
580
576
570
569
567
561
566
567
566
564
567
566
566
566
562
558
558
567
568
568
562
560
562
567
562
562
566
567
567
568
568
568
568
572
576
577
580
585
586
582
581
579
577
572
570
569
567
560
558
558
555
555
556
555
554
553
554
555
566
581
596
613
626
626
600
562
528
512
516
524
534
538
545
552
553
553
555
554
556
558
560
566
562
567
561
560
560
561
566
567
568
570
569
568
571
572
576
576
579
585
586
585
586
589
588
584
584
584
586
582
582
582
579
579
576
572
570
570
570
568
559
560
560
559
556
555
554
553
554
558
559
559
561
558
561
559
559
561
561
560
557
555
556
559
558
555
555
559
564
561
565
567
567
569
572
570
570
568
569
562
561
560
556
555
555
552
549
542
541
540
541
545
546
544
541
552
569
584
598
616
618
592
553
513
495
498
508
519
525
530
535
535
537
541
543
544
542
546
549
552
549
547
550
547
549
552
554
553
552
554
556
558
558
560
566
568
569
570
571
572
571
576
574
576
577
577
579
578
577
576
577
576
571
570
566
559
558
558
558
555
555
554
553
553
554
555
556
556
556
556
557
554
555
560
560
556
556
558
554
556
556
558
558
560
564
567
569
570
569
570
577
577
577
574
574
570
569
568
562
558
559
556
554
555
552
546
545
542
541
543
545
555
566
584
600
615
618
600
562
521
502
509
516
526
531
536
542
546
546
546
552
555
556
555
555
554
556
557
558
560
561
566
566
561
560
559
565
567
572
577
579
578
574
578
578
580
584
585
585
585
588
589
584
584
580
582
584
580
579
571
569
567
562
568
567
566
562
561
559
562
565
561
561
561
564
561
561
561
566
568
566
568
569
568
569
567
568
566
566
568
570
570
570
570
572
577
582
584
581
579
578
576
571
562
561
558
556
553
556
554
552
552
549
548
549
547
553
568
586
607
625
629
606
564
523
504
506
513
523
528
534
538
537
537
541
545
545
542
544
547
553
553
554
555
556
556
554
554
558
559
559
560
558
564
566
560
561
567
570
577
572
571
572
574
576
576
577
574
572
571
572
569
569
569
564
562
560
558
553
552
552
553
554
554
552
553
555
553
547
549
550
554
554
552
548
552
550
553
552
555
558
555
554
553
549
552
552
555
559
560
559
567
568
567
567
568
561
556
555
552
553
552
545
544
545
541
536
537
534
534
537
541
550
566
589
610
626
625
595
552
507
490
496
508
518
525
528
535
536
535
540
541
541
545
546
546
543
542
545
547
545
549
549
547
549
552
558
561
561
562
566
565
561
561
566
566
567
568
567
567
568
571
571
571
570
570
572
570
567
559
556
554
553
554
553
550
549
547
545
546
546
547
546
549
550
550
552
553
553
553
546
546
547
552
547
545
549
547
545
550
553
554
556
561
562
567
570
568
567
567
562
560
554
547
545
543
543
538
535
536
535
536
544
545
543
543
546
556
571
592
609
620
605
566
523
499
489
504
513
519
526
533
533
535
541
542
545
545
544
542
543
542
545
547
547
546
550
554
559
559
559
566
564
566
568
568
567
570
572
574
571
572
573
570
572
576
582
582
582
576
573
572
569
570
568
562
554
554
555
558
556
556
554
556
556
556
556
558
555
556
557
560
559
560
562
562
559
560
560
561
561
560
560
561
567
569
570
570
569
570
572
572
578
578
576
571
568
568
560
559
558
560
556
555
556
554
552
549
550
548
548
558
571
590
612
627
626
598
562
523
505
506
518
526
536
542
544
546
548
550
555
554
553
555
558
559
557
556
556
556
557
560
562
562
565
569
570
570
571
574
574
580
582
582
581
581
580
582
583
580
582
588
586
588
586
585
580
577
572
569
562
565
565
561
557
554
558
561
560
561
561
560
562
562
561
559
561
566
561
560
562
566
561
562
560
560
560
564
562
569
572
571
569
571
577
577
576
576
572
572
571
569
562
558
556
554
550
546
545
547
549
549
549
546
545
549
570
584
600
617
622
595
553
517
499
502
513
523
528
534
541
546
546
545
548
550
550
552
549
553
556
560
559
559
559
559
561
567
564
568
570
570
571
569
570
571
574
577
581
584
581
580
584
582
582
582
588
586
585
581
579
572
571
568
566
562
564
562
561
560
560
562
567
566
562
561
560
560
558
562
567
567
566
567
568
567
566
566
566
568
569
568
570
571
572
572
576
576
579
581
581
584
580
579
576
572
570
570
569
567
568
562
559
557
558
558
558
559
559
571
582
598
615
628
634
614
577
535
514
516
522
535
545
552
556
558
556
560
561
562
567
567
568
569
568
571
568
569
571
572
570
570
570
572
577
579
581
581
584
589
592
590
592
589
590
594
595
596
592
590
596
597
597
595
592
586
584
584
581
579
576
574
576
576
572
572
572
574
572
571
572
574
576
573
576
581
581
580
580
577
581
581
586
586
581
581
582
584
588
591
595
601
604
601
598
598
600
595
590
586
585
580
578
580
579
577
571
569
570
576
572
574
585
598
615
633
654
662
641
601
559
529
528
543
556
569
570
572
577
580
581
581
585
586
584
580
579
580
584
588
586
589
589
592
592
589
592
592
596
597
598
598
598
598
597
603
605
603
603
601
603
606
608
605
601
598
597
593
591
588
585
585
582
580
581
581
577
571
570
571
571
572
572
568
562
566
569
572
568
569
572
574
572
570
570
571
570
569
568
570
570
570
572
572
574
577
580
582
582
581
577
574
571
566
559
554
554
553
552
552
547
546
547
549
550
553
562
582
603
624
634
625
591
546
512
506
512
521
528
535
538
542
541
543
545
546
545
547
547
545
550
554
554
550
552
554
555
556
560
561
561
568
567
567
569
568
570
570
571
572
580
578
577
577
581
580
580
581
583
582
577
574
570
570
570
569
568
564
562
560
559
560
558
556
558
559
561
560
558
560
561
558
559
560
560
561
561
561
562
566
560
556
560
566
568
568
570
571
571
571
572
577
574
571
571
568
566
559
558
554
552
553
554
552
547
545
547
552
555
566
580
600
621
636
634
605
562
524
513
514
524
533
536
538
543
545
552
555
558
556
550
555
558
559
562
564
562
565
567
567
567
568
567
567
572
576
576
578
580
579
582
584
582
584
585
584
584
584
583
581
589
592
590
585
582
579
577
572
570
570
569
562
561
561
562
566
564
562
561
565
562
558
561
564
562
561
561
561
558
562
561
560
560
562
561
566
568
569
571
576
576
576
573
572
572
572
570
566
560
558
555
553
549
546
546
546
543
543
543
542
543
545
556
581
605
622
634
627
594
552
516
510
516
525
535
537
543
547
547
547
552
554
553
553
553
558
561
558
558
558
558
560
561
561
566
566
568
568
568
574
574
572
571
570
574
577
579
577
580
572
577
581
581
581
580
576
574
571
568
562
558
556
558
559
558
555
555
556
555
554
554
550
550
552
553
556
556
558
558
556
556
558
556
555
554
555
558
560
562
566
567
566
569
571
574
572
576
574
574
569
567
559
555
556
553
550
547
544
542
545
546
546
547
546
542
554
572
589
608
624
620
590
544
509
499
507
518
525
532
534
537
543
545
547
549
547
547
549
554
554
556
558
557
556
559
560
557
558
559
562
565
562
566
562
561
562
567
570
571
571
571
570
570
570
570
570
571
570
566
566
564
560
556
554
552
549
543
545
542
540
540
545
542
542
541
541
538
537
541
543
540
543
545
547
548
546
542
546
547
543
537
542
546
545
547
553
556
558
559
559
560
561
556
555
555
552
545
542
540
540
538
535
533
534
533
533
532
531
535
545
556
571
595
613
608
573
534
497
488
496
507
512
521
523
532
535
536
535
536
537
540
542
542
541
542
542
544
545
547
549
549
547
548
552
554
554
559
560
562
566
562
567
568
571
572
576
576
572
572
572
574
577
576
572
570
565
562
562
560
560
559
559
558
560
559
557
555
558
558
560
559
559
558
560
566
566
561
562
566
567
568
568
567
567
561
569
571
571
572
576
577
581
584
584
585
585
582
582
580
572
569
562
561
559
559
562
558
557
560
561
560
560
562
573
586
600
619
631
622
588
546
519
516
522
530
537
547
552
553
554
556
556
559
560
560
560
559
566
566
569
570
569
569
568
568
570
576
577
571
573
572
577
581
577
581
584
584
585
586
589
588
588
588
586
585
585
586
584
581
579
574
570
564
562
566
566
568
567
562
560
560
559
560
561
559
560
560
560
561
560
559
560
558
559
560
562
564
561
560
560
562
566
567
569
571
571
572
571
574
573
568
567
565
561
555
547
544
545
541
542
543
542
542
542
543
545
554
569
586
604
619
624
598
555
514
493
495
508
521
526
535
540
543
547
547
547
548
546
547
547
547
553
552
554
554
554
554
556
559
562
564
566
568
569
570
570
571
571
571
576
574
574
577
577
577
572
571
574
576
577
576
574
569
565
565
560
558
558
555
555
554
549
547
547
550
550
549
549
550
553
552
550
549
550
550
552
549
542
543
550
546
544
544
547
546
549
553
554
555
558
556
556
558
554
553
552
546
545
543
540
534
534
532
528
526
525
526
526
525
535
553
571
589
606
618
600
559
519
488
487
495
502
509
514
523
524
522
526
526
528
530
533
534
533
533
535
540
542
541
543
546
546
545
548
552
552
552
553
554
555
556
555
555
556
560
561
561
556
558
562
561
560
561
560
559
556
555
552
550
547
549
546
543
544
542
541
540
537
540
542
543
542
543
545
547
547
545
546
545
546
545
547
545
546
546
545
550
555
559
562
562
567
570
567
567
565
562
559
555
552
547
543
542
537
540
545
546
546
543
541
537
542
550
567
582
605
622
626
602
559
516
497
505
517
526
533
536
543
543
543
543
545
546
549
553
554
553
550
552
550
556
559
559
561
561
562
567
568
568
568
569
570
570
576
577
581
583
582
581
577
581
585
583
582
580
581
577
572
570
568
568
567
567
566
561
561
561
559
556
555
558
556
556
558
556
559
560
561
560
559
555
555
558
559
560
560
559
559
561
562
569
570
570
574
576
576
576
577
572
566
561
564
554
552
552
550
550
550
547
545
542
541
541
543
545
560
572
589
608
621
609
576
533
507
505
509
522
528
530
532
536
541
546
549
546
546
547
552
554
553
553
554
554
553
550
554
558
560
562
568
569
574
570
570
576
577
576
577
577
579
581
584
582
584
586
582
585
586
582
579
576
572
569
571
571
571
566
561
561
560
557
559
561
559
560
560
560
561
562
567
566
567
568
567
568
569
568
568
566
569
571
574
576
579
581
580
582
583
585
584
580
582
580
576
570
568
568
564
559
557
557
555
555
556
554
552
555
562
577
595
616
634
637
614
576
535
518
519
532
540
543
547
554
561
561
562
567
566
562
570
572
574
574
577
576
578
580
584
585
582
586
585
585
588
591
597
596
596
600
603
605
608
608
608
608
609
609
608
607
607
608
603
601
600
603
604
601
597
590
591
592
589
588
586
582
585
592
592
589
590
588
590
590
590
594
595
592
589
586
589
590
593
590
594
592
593
597
598
600
605
606
601
598
601
602
598
595
590
588
581
577
571
570
570
568
561
556
559
561
554
558
574
584
596
616
625
615
585
543
513
509
519
528
536
538
542
547
547
550
549
550
553
557
555
552
554
558
560
560
560
560
559
560
560
561
560
566
568
569
567
561
562
567
568
568
567
567
567
567
570
574
576
576
574
570
570
566
560
558
556
556
550
547
550
546
547
546
546
547
547
545
541
542
543
546
546
543
536
541
544
544
543
540
540
541
541
542
546
547
546
550
553
555
555
554
552
553
554
555
549
546
543
537
533
528
528
528
524
525
526
526
523
525
525
529
542
558
576
590
595
571
533
494
475
483
493
499
506
508
512
516
516
518
519
521
524
524
522
521
523
528
530
532
528
528
530
526
528
532
534
534
537
537
541
541
544
545
543
543
542
543
546
545
543
545
546
545
541
543
541
536
536
532
530
526
525
526
525
522
521
521
521
523
522
518
523
524
525
526
526
526
528
528
525
526
525
524
524
524
531
530
532
533
535
535
540
544
543
546
546
542
542
543
543
542
536
532
526
526
524
523
523
524
525
530
528
524
522
532
545
560
577
596
606
592
554
514
486
483
495
502
511
520
525
528
532
532
534
533
536
536
537
537
536
540
542
547
550
552
553
555
555
558
558
558
560
562
562
566
568
568
569
570
572
577
579
577
579
579
581
581
577
580
581
576
576
571
564
566
566
566
561
561
567
568
566
568
567
568
567
568
572
572
576
574
570
568
568
570
574
576
572
576
576
577
579
582
584
584
586
590
592
590
595
594
591
591
590
584
584
586
580
576
572
571
571
571
571
571
570
571
572
579
598
624
643
657
662
637
592
555
537
541
552
555
559
564
567
570
572
571
574
582
585
582
584
585
588
591
591
590
596
596
594
595
598
598
597
597
603
606
608
610
610
609
608
613
613
613
614
614
614
615
615
613
614
612
607
603
605
606
602
601
596
595
594
592
589
588
592
594
590
588
585
588
589
592
594
590
589
592
593
592
590
592
595
592
592
592
594
592
594
595
598
606
608
606
607
603
600
600
597
589
586
584
580
576
574
577
576
576
577
573
571
571
577
586
605
627
649
658
646
608
564
533
525
534
543
553
554
556
558
562
569
570
569
570
570
576
577
577
577
579
579
576
572
576
574
576
578
582
585
584
589
592
594
592
594
595
595
594
594
595
594
597
594
591
593
594
590
585
581
582
582
579
579
576
574
570
570
570
571
570
569
569
568
567
566
570
576
574
571
571
570
566
566
568
567
571
571
569
566
567
569
572
574
577
580
580
580
579
574
572
571
571
570
567
561
555
554
550
550
549
546
542
541
541
544
550
559
581
597
614
632
625
585
541
506
500
507
517
523
531
537
535
541
545
545
543
541
541
543
545
549
553
550
550
547
545
546
547
547
554
554
553
554
556
559
560
565
566
569
568
569
567
566
562
560
562
569
570
566
562
561
556
555
556
555
552
546
547
547
545
542
542
543
545
547
547
546
547
546
547
550
549
546
546
549
547
546
546
550
553
552
553
556
559
558
558
559
559
560
558
564
569
566
561
556
556
553
552
552
550
549
544
541
536
540
540
537
538
538
547
561
580
598
616
615
589
549
511
495
499
508
518
524
528
533
535
535
541
542
544
545
544
545
548
553
553
553
549
547
549
552
550
553
558
558
558
562
568
568
568
572
574
574
574
576
578
576
574
580
579
580
580
579
579
576
570
570
568
566
560
561
561
559
557
557
558
556
556
559
561
562
561
562
562
561
561
561
560
562
561
562
560
560
561
562
568
567
568
569
572
573
571
572
574
574
571
569
567
568
562
560
555
554
552
547
543
546
541
540
537
540
535
540
552
562
578
601
615
616
585
541
504
489
496
502
509
514
521
525
528
526
525
530
532
529
530
533
532
528
531
534
533
529
532
534
535
533
535
541
540
542
542
544
542
545
546
547
546
550
552
550
550
547
550
552
549
544
541
538
536
534
531
526
525
524
526
522
521
522
519
518
522
521
521
521
522
520
523
522
522
522
524
523
521
519
518
521
519
521
521
521
524
526
525
530
532
533
535
536
537
533
526
522
523
523
518
519
516
513
507
506
506
505
502
502
505
506
501
513
528
545
560
576
569
538
495
461
452
460
470
472
480
488
495
502
502
499
501
505
505
505
505
505
507
508
512
514
511
506
507
512
516
519
521
521
523
526
526
530
535
537
535
535
537
540
536
541
542
542
542
542
541
540
536
533
532
528
528
528
530
528
528
526
525
528
528
530
534
533
533
533
534
533
534
533
537
541
537
537
540
538
538
541
540
540
542
545
550
554
555
559
561
566
562
561
559
556
559
559
555
548
549
552
547
545
542
543
542
543
543
546
545
550
568
584
601
616
621
605
567
523
497
505
518
528
534
538
540
546
554
556
558
558
560
559
559
560
559
561
566
568
567
567
567
570
572
574
578
580
581
580
582
584
581
582
586
585
589
590
590
594
592
594
596
592
594
592
592
589
589
586
582
580
580
580
578
574
576
577
577
576
577
578
579
579
580
582
581
579
578
577
579
578
577
577
576
579
577
580
579
580
585
588
589
589
592
592
590
592
591
589
588
586
580
574
571
568
572
568
566
568
567
562
562
562
562
570
585
598
620
636
644
629
597
554
525
521
528
540
547
553
556
557
560
560
567
566
568
569
568
568
569
570
574
577
580
576
577
577
576
579
582
585
592
592
590
594
597
598
601
602
601
600
601
601
600
605
604
603
601
601
601
597
597
592
589
588
588
588
586
585
581
584
584
585
586
585
584
582
580
581
584
585
581
581
582
584
584
585
586
586
582
584
586
589
590
593
592
595
595
596
600
603
601
600
595
592
588
586
584
580
579
574
571
569
567
568
568
567
568
574
585
602
620
644
654
641
606
564
528
523
528
536
543
553
555
556
558
556
558
560
566
568
569
569
568
567
566
568
571
572
572
571
572
574
580
580
581
581
584
585
584
584
584
586
591
592
592
590
592
595
595
595
592
589
586
584
581
581
579
571
570
568
569
568
570
568
566
569
570
571
571
569
571
570
570
567
566
568
568
568
566
568
567
568
568
569
572
576
574
574
579
585
585
581
580
584
586
585
580
570
568
566
562
561
558
554
554
555
554
552
554
554
556
570
586
606
626
638
634
603
557
519
509
513
525
534
540
544
547
554
556
554
554
555
556
558
558
558
560
565
567
567
566
569
568
568
570
576
577
577
579
578
577
582
586
588
588
588
589
591
589
589
588
589
588
588
582
584
581
579
577
572
569
561
561
568
568
562
561
558
557
557
560
562
562
560
559
558
559
561
562
561
566
564
561
560
560
560
561
562
568
568
569
572
572
576
577
576
574
573
572
570
567
561
560
555
553
552
552
549
545
546
546
546
545
542
546
557
571
589
608
622
619
588
546
509
505
507
516
523
528
533
534
536
540
541
544
545
545
546
546
545
549
553
552
554
555
553
547
549
552
555
560
561
561
562
561
567
567
569
574
576
572
573
572
572
574
572
574
576
576
577
569
570
568
561
561
560
561
560
559
559
556
556
556
558
558
559
559
560
559
559
560
558
560
557
557
560
560
559
560
560
560
558
558
559
562
567
568
568
571
572
572
572
574
570
568
562
562
561
558
553
546
547
546
546
544
543
546
547
547
550
560
574
598
610
620
601
560
521
499
499
511
519
524
532
536
537
535
537
537
540
545
545
541
546
548
546
549
550
553
553
554
555
556
560
559
560
561
566
567
569
571
574
574
570
572
572
579
579
577
576
577
577
577
574
573
569
567
562
559
560
558
559
555
556
558
555
555
554
554
556
559
562
562
565
559
557
560
559
560
560
559
562
561
560
559
562
567
569
571
576
579
580
582
580
577
579
579
580
574
569
568
567
562
560
560
558
559
556
553
553
553
549
550
555
566
577
596
615
627
608
569
529
506
509
519
524
533
537
545
549
547
552
552
555
554
554
555
554
555
559
560
561
564
568
569
570
571
574
574
576
576
579
579
582
585
581
586
591
592
596
596
595
595
596
597
596
594
595
590
586
586
585
581
580
581
581
577
574
576
576
572
576
577
577
576
577
579
581
579
579
581
584
581
583
584
586
586
586
582
581
580
581
586
589
592
597
601
606
606
605
608
608
606
606
600
597
590
588
588
586
582
582
582
585
584
582
581
580
585
598
616
636
653
664
657
625
585
554
542
546
556
566
577
581
588
590
590
594
596
597
600
600
598
598
597
596
598
600
600
600
603
605
608
606
608
613
614
614
613
616
618
620
620
622
620
622
625
625
625
622
622
618
616
614
609
614
613
608
607
605
598
596
597
598
597
596
595
595
595
593
592
595
594
594
596
594
592
590
589
592
590
588
584
584
585
585
586
588
589
589
589
595
601
603
600
598
594
588
586
584
577
570
567
566
562
560
556
558
559
557
556
556
556
560
580
596
610
628
627
601
559
522
502
502
509
518
524
526
534
538
540
542
540
536
541
542
541
542
541
540
542
543
545
543
542
542
542
543
546
543
546
547
545
545
544
547
549
550
554
555
556
557
553
553
552
547
550
547
545
543
541
538
533
531
526
525
526
525
524
519
519
522
524
526
523
523
525
525
524
524
524
522
521
518
517
513
514
516
519
518
518
522
525
526
531
532
531
532
534
534
536
533
528
523
521
519
517
516
512
509
508
508
507
504
500
501
502
505
518
534
550
569
586
592
567
521
481
466
470
478
486
494
497
502
506
505
507
506
508
511
512
511
512
513
517
519
517
519
522
524
524
525
523
524
530
532
532
533
533
536
538
541
541
542
543
545
546
546
546
547
549
547
547
544
541
543
542
540
540
541
537
535
536
534
534
533
534
533
534
535
535
536
536
540
537
542
541
540
542
542
543
543
543
542
540
536
542
546
547
552
552
554
558
562
561
561
559
555
553
549
546
544
541
541
541
538
535
535
535
535
535
537
541
550
567
586
608
619
608
571
529
497
489
499
509
519
522
526
532
533
535
541
540
537
540
542
541
540
543
546
546
550
552
552
550
554
558
559
561
561
558
559
561
567
570
573
574
571
572
574
576
574
573
574
576
572
572
574
571
569
568
568
561
556
555
555
556
559
558
555
556
558
559
559
556
555
556
558
561
561
560
560
561
557
556
559
561
561
559
560
561
566
568
570
570
569
574
577
577
577
577
574
570
570
565
559
557
556
554
552
547
547
547
545
543
545
547
554
568
585
607
626
629
607
568
524
502
507
518
526
536
536
541
544
549
554
555
556
555
555
556
559
557
555
558
560
560
561
566
569
570
572
571
571
572
572
574
576
577
580
584
586
585
582
582
586
589
586
588
589
588
586
582
579
577
572
568
567
564
570
572
571
570
569
567
568
569
568
569
570
569
568
569
576
576
574
572
572
571
572
569
569
571
572
571
572
577
576
577
579
582
589
590
590
588
582
581
580
579
574
572
569
569
567
562
557
561
559
558
556
557
558
561
571
589
607
627
634
619
580
542
516
514
526
533
535
538
541
542
541
537
536
542
541
537
535
535
540
537
541
541
541
543
547
546
546
546
549
552
552
553
554
555
558
556
556
559
558
561
561
562
562
559
560
562
561
559
557
556
554
552
550
550
547
545
545
545
546
543
542
542
543
546
547
544
545
544
545
545
547
550
553
552
553
552
553
552
553
553
555
555
556
558
555
556
559
561
567
569
570
571
571
569
570
568
561
559
555
553
550
547
546
546
547
545
544
546
546
547
553
561
580
600
616
625
606
568
526
504
506
516
526
533
536
543
543
546
546
549
552
553
552
552
553
555
558
559
559
559
561
562
561
559
562
570
571
571
576
576
576
580
578
580
582
585
585
586
585
585
586
586
589
588
586
584
581
579
572
572
574
571
571
570
568
567
567
566
568
569
569
569
568
568
571
570
568
562
569
569
570
569
570
570
568
566
568
568
570
576
579
580
582
582
584
584
585
582
581
582
581
579
574
571
561
559
559
558
556
555
556
556
555
553
555
559
570
584
600
616
632
624
592
553
519
507
514
525
536
543
547
550
554
556
554
558
559
560
562
565
562
562
568
568
566
568
570
571
568
569
578
579
580
581
586
586
581
584
585
589
589
588
589
591
590
590
594
594
592
590
589
586
584
582
579
578
571
571
574
576
574
571
573
573
572
576
577
576
578
576
572
576
577
578
580
580
581
582
581
574
571
573
580
581
585
586
589
595
596
598
601
600
600
603
601
600
595
592
592
589
585
584
579
580
577
577
576
576
576
574
577
585
603
619
639
655
655
633
590
545
524
529
542
552
556
561
562
566
562
567
568
569
571
570
570
570
572
577
574
570
573
579
579
579
579
577
577
577
577
581
585
585
585
586
589
588
588
590
590
588
586
588
589
586
586
584
580
577
574
570
567
566
561
561
561
559
556
560
561
561
562
562
566
561
560
554
556
560
559
561
561
560
555
554
553
556
556
556
556
558
560
561
566
568
568
569
570
570
572
574
571
566
561
556
549
546
543
540
536
534
533
535
536
536
536
536
546
560
578
601
618
620
592
550
507
486
489
499
511
519
525
525
528
530
533
535
536
537
540
540
540
540
541
546
549
550
550
552
552
554
556
558
556
559
560
562
565
566
569
571
571
570
572
573
571
573
574
572
572
572
569
571
570
568
562
560
561
558
554
554
553
554
555
554
555
554
555
556
558
556
558
558
561
559
558
560
561
561
559
558
556
554
557
560
561
562
566
568
568
570
572
574
577
578
577
576
574
570
567
561
555
556
559
561
556
555
554
555
554
552
554
561
580
596
620
639
644
618
573
528
511
521
534
542
547
553
554
558
562
566
567
566
566
567
568
571
570
571
574
577
577
577
577
580
577
579
580
580
582
586
588
588
589
590
591
589
589
589
590
588
589
590
593
594
592
589
585
584
577
572
571
569
567
561
561
562
561
561
566
567
566
567
569
567
560
560
556
562
566
566
567
562
566
565
560
566
562
564
568
570
571
567
566
567
570
574
577
574
574
572
571
568
562
561
560
556
554
552
552
555
552
552
550
546
545
546
553
567
580
600
620
619
595
560
523
506
507
519
528
532
535
538
540
543
546
547
546
549
550
549
549
554
556
558
560
560
559
562
561
560
562
567
571
572
576
577
574
576
578
582
585
589
588
584
585
585
588
591
590
589
585
582
580
580
574
572
572
576
576
574
571
571
572
571
572
576
572
576
577
576
573
574
576
579
582
582
586
585
585
588
586
589
593
597
597
598
605
607
609
610
615
616
616
615
614
610
605
601
596
597
596
594
596
593
590
590
589
590
589
588
595
607
622
642
658
663
641
602
564
543
545
556
564
570
570
573
580
579
579
582
585
586
588
588
588
586
585
589
594
596
590
592
596
594
594
595
594
594
601
606
601
601
604
606
604
605
606
608
606
608
608
607
606
603
598
597
595
594
590
588
588
586
588
588
585
582
584
584
586
586
585
584
581
578
579
582
584
584
583
581
584
589
590
586
585
584
581
580
585
586
589
590
590
594
595
595
595
593
593
589
585
586
580
572
568
568
567
560
558
559
558
558
558
558
559
574
592
610
627
636
625
588
547
518
514
525
534
542
552
554
556
560
562
560
567
569
567
570
572
576
572
571
572
573
574
574
574
580
585
584
585
586
589
592
597
598
597
596
597
596
596
600
596
595
594
594
595
594
595
592
590
586
584
580
579
571
568
571
569
566
567
567
566
566
566
567
567
562
560
559
561
560
561
560
558
558
556
553
555
555
556
561
565
567
567
566
567
570
570
568
564
562
561
561
559
559
555
552
540
541
543
542
542
542
541
537
535
537
549
561
577
596
610
618
594
554
513
490
493
505
514
521
523
532
532
533
532
535
538
541
537
536
537
537
536
536
536
538
537
540
541
542
543
545
546
545
547
550
552
554
554
555
554
554
555
554
556
559
558
556
555
554
554
552
549
547
545
541
540
535
537
535
533
534
535
537
536
535
534
535
535
535
533
532
533
533
534
536
535
533
534
535
535
533
530
533
537
540
541
543
547
546
545
543
541
542
542
543
536
532
526
523
522
521
522
521
516
511
512
514
514
523
537
554
572
594
603
584
541
496
471
469
476
485
490
497
502
506
508
509
511
513
512
509
510
513
516
516
517
513
514
519
521
522
523
519
521
523
526
528
528
530
530
532
534
534
536
537
540
537
535
534
536
537
536
533
530
525
526
526
523
523
519
513
514
516
514
519
519
517
518
516
514
514
513
516
518
516
523
523
524
523
519
519
522
523
526
523
526
529
532
533
535
536
537
538
537
536
536
534
533
525
524
521
514
512
514
518
514
516
516
509
509
512
524
542
560
581
598
601
576
530
480
465
473
486
495
495
499
508
513
513
514
514
518
516
514
519
523
522
519
524
526
530
530
530
533
532
533
535
536
541
542
541
543
546
547
547
547
549
552
553
555
555
553
552
554
553
550
547
552
553
549
543
543
543
541
537
537
538
540
538
542
541
540
537
536
535
535
540
543
545
547
547
546
541
542
543
542
542
543
546
547
547
552
558
555
554
555
555
553
546
543
540
536
534
532
530
531
526
528
532
532
533
533
535
542
555
570
594
614
620
595
552
507
489
496
508
517
525
530
534
537
542
545
546
543
545
549
550
553
550
552
554
554
555
556
558
561
566
560
561
567
571
572
571
574
580
580
580
581
584
584
583
585
586
586
586
586
584
584
580
582
581
581
576
570
570
568
568
568
567
566
567
568
568
560
566
568
568
571
574
574
574
577
576
572
569
570
572
572
577
580
582
582
586
590
592
594
592
595
595
591
586
585
580
572
571
568
569
570
570
571
571
570
569
567
566
574
589
605
622
642
651
633
592
544
522
522
533
543
553
559
562
569
571
570
571
571
569
568
569
572
574
574
571
576
580
581
582
586
584
585
589
589
588
589
592
594
594
596
596
597
598
601
601
605
603
601
600
598
598
598
592
592
590
589
588
585
580
580
580
580
577
579
580
580
580
582
582
580
577
580
579
578
579
580
580
574
576
578
576
579
580
584
581
584
586
584
588
592
594
592
590
586
584
586
585
581
578
574
571
570
570
570
567
567
569
567
567
567
572
588
605
626
639
639
618
579
541
524
526
537
546
552
554
558
559
561
562
564
569
566
568
569
567
564
566
567
567
570
570
570
576
577
581
584
583
582
584
585
585
586
589
588
586
584
580
579
584
589
590
590
589
585
585
581
577
576
571
567
566
562
561
558
555
553
553
552
553
555
557
556
556
558
558
558
558
555
555
553
554
554
557
556
556
554
554
556
560
562
567
569
572
574
574
577
573
567
566
559
558
556
554
550
549
546
543
546
546
543
543
542
543
552
561
578
590
609
617
600
560
521
494
496
508
521
532
536
537
540
542
545
543
546
550
553
555
554
554
552
552
552
553
552
555
560
558
559
561
567
567
566
561
567
568
568
571
574
576
572
572
571
569
573
580
582
580
576
572
569
564
561
560
558
555
554
555
552
549
553
554
553
555
556
556
559
555
556
556
557
555
558
559
559
558
558
555
556
561
560
562
566
568
571
572
578
580
579
580
576
572
570
567
562
561
557
554
555
559
556
554
552
550
553
550
552
557
571
588
605
624
629
614
576
534
505
504
509
523
532
537
542
542
542
545
547
552
553
553
549
550
553
555
555
556
559
556
559
560
559
559
566
569
568
569
571
572
574
572
576
572
574
577
577
578
579
580
579
577
572
574
570
567
562
561
559
557
554
553
553
554
553
553
553
555
555
554
554
555
556
556
553
554
556
556
554
554
553
553
554
553
550
552
554
556
561
562
561
565
569
571
571
571
570
569
566
561
557
555
553
547
546
545
541
542
543
543
541
541
542
549
561
580
600
619
629
614
577
533
504
502
511
522
528
530
533
537
541
542
543
544
545
547
552
550
549
546
547
550
553
554
556
558
558
554
556
560
562
566
569
571
572
574
576
574
572
570
571
572
572
573
576
576
574
573
572
570
570
569
562
559
557
555
556
556
556
555
556
555
556
556
556
555
557
560
560
560
559
559
559
558
560
559
558
559
562
566
568
569
571
574
576
576
577
574
572
570
572
570
569
561
556
552
552
554
553
555
553
553
547
543
546
546
555
574
595
617
634
634
608
567
525
506
508
522
532
537
541
543
543
543
546
552
552
552
554
553
550
553
556
559
561
561
569
567
566
566
568
569
568
571
576
576
576
580
579
577
580
582
584
581
585
589
589
588
586
585
584
580
574
572
571
570
568
567
566
564
560
560
560
559
558
561
560
560
562
562
566
561
561
561
560
562
568
568
561
566
566
569
576
572
572
576
580
585
586
582
578
579
578
577
576
569
561
561
560
560
558
554
553
552
553
555
556
556
561
576
595
608
629
645
633
596
553
522
518
522
532
541
546
554
559
561
566
566
567
566
568
569
570
574
573
577
576
582
584
584
588
590
591
590
595
596
598
600
600
598
602
605
607
607
606
608
610
615
618
615
619
618
613
610
609
605
601
601
601
601
598
596
593
592
594
595
595
596
596
594
591
590
589
588
586
589
589
589
588
589
588
589
586
588
588
591
590
592
595
596
600
598
597
596
596
595
592
589
581
577
573
574
571
572
571
570
567
562
562
567
568
580
592
609
629
645
642
613
568
531
519
525
540
545
553
558
562
570
574
574
576
576
576
578
580
582
584
586
588
590
592
590
590
589
592
590
596
601
601
605
607
606
608
608
607
608
609
610
615
614
613
614
610
608
607
607
605
600
598
596
593
592
589
594
594
592
589
589
590
586
589
588
588
589
592
592
588
589
589
588
586
588
588
585
588
590
592
596
598
598
598
600
601
605
601
605
601
598
594
590
591
585
582
581
582
581
580
581
581
582
577
576
579
584
593
605
624
642
642
618
578
543
524
532
544
552
556
561
567
568
568
567
568
570
571
571
570
569
571
572
574
574
577
576
576
577
577
573
574
579
581
580
581
584
585
588
584
580
580
581
581
579
580
581
580
577
576
572
571
567
562
561
558
556
554
552
552
547
550
547
547
546
547
543
540
542
545
543
542
545
548
545
542
542
540
537
537
541
543
543
543
545
549
549
549
547
552
550
546
543
540
536
536
530
525
524
522
518
516
517
516
517
516
514
518
525
535
550
571
586
584
556
514
477
464
470
481
488
496
502
502
506
507
509
508
511
509
508
505
502
506
508
513
514
513
513
512
513
518
521
519
521
523
524
525
528
532
529
528
533
534
535
534
535
535
533
534
537
536
533
528
524
519
516
512
512
512
513
513
513
512
512
512
513
513
513
509
509
511
509
512
514
512
511
513
516
516
516
514
516
514
516
517
517
519
522
525
528
532
532
530
528
528
526
524
522
522
514
510
506
505
506
505
502
499
499
499
501
502
509
519
540
557
572
578
559
523
484
460
460
470
483
494
499
500
504
505
511
511
516
513
513
516
521
522
521
522
526
528
530
528
529
532
534
536
537
541
542
545
543
543
546
547
552
553
552
554
556
560
560
558
554
553
556
554
554
553
552
550
543
542
542
542
542
541
546
547
547
546
546
545
546
548
549
545
545
547
547
550
552
549
545
547
552
552
553
555
560
560
559
561
561
567
566
566
568
566
566
560
558
553
550
548
549
547
547
549
548
549
545
543
550
550
562
580
597
616
627
618
588
543
514
507
517
530
537
543
543
547
552
555
556
559
560
561
562
562
567
568
569
571
572
571
571
576
580
580
580
584
584
582
584
589
590
592
590
595
594
594
597
601
600
600
601
600
601
601
601
597
593
592
592
590
585
585
586
585
584
584
581
580
581
583
586
585
584
588
588
586
588
586
586
589
588
585
586
583
586
589
590
592
592
598
601
601
605
605
605
601
600
596
594
586
582
581
577
576
578
579
574
572
579
580
577
577
586
603
620
641
661
661
629
585
545
531
533
545
554
560
567
569
568
570
572
578
578
577
577
580
580
579
580
580
581
584
586
589
588
589
589
592
592
589
594
597
595
594
598
600
600
600
603
603
601
602
605
601
602
598
595
595
591
589
589
584
585
586
585
580
579
574
570
571
574
577
577
574
574
574
579
579
577
578
576
574
577
577
574
571
572
576
577
577
579
579
580
581
585
586
582
582
580
579
574
570
569
568
560
558
556
552
548
549
548
547
550
549
554
566
582
601
622
628
606
573
526
500
504
509
518
531
537
540
541
542
543
546
547
547
552
550
553
555
556
554
554
556
557
556
554
555
559
561
560
567
568
567
569
570
574
576
576
576
576
576
577
577
580
577
576
572
577
572
569
569
569
561
561
560
555
555
558
556
555
555
554
554
555
554
554
556
555
556
558
558
557
559
558
555
553
555
553
555
558
557
560
562
562
562
568
569
574
577
574
570
567
568
562
558
555
553
550
549
547
547
545
546
543
547
547
547
556
572
586
605
620
619
591
547
511
499
507
519
525
532
537
543
549
550
550
553
554
552
548
547
550
553
552
549
553
555
556
561
561
560
566
570
571
573
577
577
574
572
574
577
578
579
579
584
584
582
584
584
582
581
581
577
569
568
569
567
566
561
556
556
560
562
562
560
561
562
561
558
558
555
560
566
567
567
566
566
562
564
565
566
566
566
568
569
570
571
574
576
579
581
582
580
583
582
579
576
572
568
566
566
562
561
556
550
553
555
554
554
554
555
560
570
591
610
626
633
614
572
532
509
511
521
532
535
542
546
552
554
558
559
559
561
561
560
560
562
566
568
570
569
569
571
574
572
572
574
577
580
585
585
584
586
589
594
592
589
590
594
596
595
596
596
594
592
589
589
589
589
585
582
578
572
572
574
572
572
569
569
572
572
571
572
571
570
570
568
572
574
574
572
569
570
572
574
572
571
576
576
574
576
580
581
582
585
588
586
586
589
584
582
580
577
572
567
566
567
566
562
561
562
560
560
560
560
562
571
586
603
620
636
632
603
564
525
517
523
533
541
546
549
555
555
558
559
562
566
566
567
569
569
569
570
570
572
576
576
574
577
581
584
584
582
581
582
584
588
590
590
592
590
590
586
588
592
596
595
592
596
594
592
590
585
581
580
580
577
572
574
572
571
573
576
577
576
574
574
579
579
579
577
577
572
571
576
580
579
576
576
577
576
577
580
580
579
588
593
594
594
594
592
590
590
588
588
585
580
580
579
571
565
566
562
561
558
560
559
560
559
565
570
584
601
622
637
634
607
560
525
514
519
530
540
541
546
546
547
549
552
553
557
558
560
559
558
560
560
559
561
562
566
568
567
566
566
566
568
571
574
577
574
579
580
580
581
581
580
574
581
582
584
582
581
577
573
570
569
569
567
562
566
562
560
557
552
549
553
555
555
558
555
553
555
557
556
556
558
559
559
558
560
556
553
553
553
553
554
553
555
558
560
565
564
562
562
566
569
567
567
560
554
552
550
547
542
538
541
538
536
534
533
530
528
530
540
556
572
591
608
614
590
550
507
487
489
497
502
511
518
523
526
526
525
530
530
528
526
532
533
533
535
534
536
540
540
536
536
542
543
543
544
542
546
550
549
548
552
550
555
556
555
554
555
557
560
558
558
558
556
554
550
545
545
542
541
536
537
537
536
535
535
533
533
534
532
536
537
535
534
535
536
537
537
536
535
536
536
536
537
536
535
536
541
542
549
549
549
552
552
549
546
546
547
542
535
529
526
528
530
526
525
526
525
525
524
523
521
522
534
552
568
582
596
595
564
523
489
481
488
497
502
508
516
522
522
522
522
522
525
529
534
534
534
535
533
534
535
535
537
538
541
541
543
545
547
550
552
554
557
559
559
559
560
561
562
564
560
561
566
566
561
560
562
560
559
558
555
553
553
552
549
552
549
547
548
547
550
552
552
554
552
555
556
554
554
554
553
554
554
553
554
553
549
552
552
558
561
565
566
567
570
569
567
567
568
569
566
560
559
555
555
554
550
549
546
543
543
545
542
542
542
546
556
572
590
613
626
615
579
536
502
500
509
521
525
535
541
542
545
547
549
549
550
554
555
555
554
554
556
560
568
567
562
566
568
569
571
571
571
576
573
574
577
582
585
585
583
586
585
589
594
589
590
586
590
589
586
586
581
577
577
579
577
574
570
570
571
569
572
572
572
570
570
568
569
573
574
577
577
577
576
579
577
574
576
582
580
576
577
581
586
586
590
590
592
596
597
596
594
595
592
589
585
578
578
579
574
574
571
567
568
570
571
570
569
570
577
590
607
627
646
645
618
580
543
525
533
547
555
562
569
574
577
582
585
588
589
589
594
598
601
600
600
603
606
605
606
606
607
609
610
610
615
618
619
619
616
616
622
621
619
618
619
619
618
618
626
622
620
620
619
620
619
610
605
603
598
600
598
594
595
595
598
598
600
600
600
600
600
600
596
596
598
598
601
598
596
596
600
598
598
597
596
605
605
601
604
605
608
608
608
606
606
605
603
598
595
589
582
581
579
577
577
574
571
568
569
567
567
566
574
588
603
622
634
633
603
560
523
516
519
533
543
552
555
556
557
560
562
568
567
572
576
577
577
578
577
580
579
580
580
583
584
584
585
586
586
586
585
586
584
589
589
592
595
594
592
592
592
592
590
592
588
585
582
580
579
576
574
570
567
567
568
562
561
560
559
560
560
560
559
557
555
559
558
557
555
555
553
553
550
546
544
550
555
555
555
558
560
562
566
566
568
570
570
569
570
570
567
565
561
558
554
548
548
552
553
555
554
547
546
546
546
550
560
577
596
614
625
615
579
533
504
502
510
518
522
525
533
536
542
541
540
536
536
541
538
537
540
541
542
543
547
549
545
547
550
552
546
546
552
554
556
556
554
555
555
560
561
561
564
567
566
562
561
561
560
558
556
555
556
554
553
549
545
544
546
547
547
546
546
547
549
547
548
547
549
552
553
555
554
554
553
553
550
552
554
555
554
555
555
556
556
561
561
567
569
572
572
572
574
574
571
568
562
560
559
555
552
552
553
553
554
553
552
547
547
552
568
585
601
619
627
610
576
534
508
506
516
524
531
535
538
543
543
542
545
547
550
553
554
553
552
553
556
555
555
556
555
555
554
560
561
561
561
562
567
569
571
572
574
576
570
569
568
570
576
577
579
577
572
570
568
569
568
568
567
561
560
556
554
558
560
560
556
556
556
559
560
562
564
567
566
565
568
570
569
570
568
566
562
566
569
570
576
576
581
582
584
585
588
584
586
585
580
578
579
574
571
567
567
562
559
561
561
561
560
560
560
558
558
572
596
620
639
644
626
584
542
519
519
530
541
546
552
556
556
560
566
567
568
568
570
568
566
569
570
569
570
570
570
572
577
579
580
581
582
585
585
586
588
590
589
589
592
594
591
594
597
595
596
596
598
598
595
592
588
582
580
581
580
579
572
574
577
572
572
576
577
573
571
573
574
576
576
576
570
572
576
572
571
570
572
570
568
570
571
576
578
577
581
582
584
584
586
586
588
589
585
580
571
569
568
568
566
561
558
554
556
558
556
556
561
568
573
588
606
624
632
618
577
535
507
509
521
532
540
542
549
553
555
556
555
555
554
553
555
554
555
555
556
558
560
562
567
566
562
567
568
566
568
571
571
571
571
571
572
579
580
581
584
585
582
581
579
577
577
574
571
562
559
561
561
560
556
556
554
554
554
554
553
550
552
552
546
542
543
546
547
546
549
550
550
552
547
546
547
547
546
546
546
546
547
553
555
560
560
560
558
559
556
554
552
552
546
537
535
537
536
534
532
530
530
532
533
533
532
535
547
566
580
600
605
582
542
502
484
489
502
509
517
522
523
525
525
526
532
534
532
533
534
541
540
537
541
541
545
542
542
545
545
546
550
553
552
552
553
554
558
560
560
556
559
560
560
562
562
562
568
566
562
562
559
558
555
553
549
549
546
548
547
547
547
548
547
546
548
549
554
553
553
554
554
555
559
555
556
555
554
555
555
554
557
560
562
562
566
568
569
569
577
584
580
577
579
579
572
568
567
561
566
562
567
566
561
560
559
555
555
559
560
568
576
588
601
622
633
625
590
552
521
521
528
540
543
549
555
560
562
566
569
570
574
572
572
570
568
571
574
577
579
580
576
576
580
585
586
585
585
586
586
588
588
588
591
589
589
590
590
589
592
594
596
595
593
590
586
582
581
580
577
574
568
565
567
571
570
568
568
568
566
569
567
570
572
570
568
567
568
568
567
568
567
567
567
567
562
562
567
569
570
570
572
578
580
581
580
580
577
574
571
570
562
560
558
554
552
550
549
549
554
553
547
547
546
553
566
580
595
610
620
615
586
542
508
499
512
518
526
533
535
541
546
549
549
549
550
554
554
553
553
555
554
554
554
559
560
558
558
560
566
567
564
565
568
569
568
570
568
566
569
571
574
576
579
581
577
576
576
574
572
571
571
567
561
559
566
562
562
560
558
554
554
559
566
560
559
559
559
561
562
562
561
558
555
558
560
560
560
562
561
561
559
560
560
566
569
570
574
576
577
577
576
576
576
571
568
566
562
557
555
554
555
554
552
549
547
547
549
549
556
571
592
613
628
633
617
576
534
512
510
518
526
534
535
538
545
549
554
556
555
556
560
560
559
560
561
566
567
567
566
562
568
570
571
576
572
572
574
577
580
580
581
581
584
582
584
581
579
581
581
581
581
582
580
580
582
581
579
574
570
562
560
560
561
559
560
558
558
558
558
561
566
566
562
562
567
567
562
566
562
561
560
561
560
560
561
562
566
568
569
570
572
572
571
571
571
570
571
568
567
560
558
556
553
552
548
547
547
546
544
542
537
541
554
571
590
613
629
628
598
558
523
507
510
523
530
535
541
542
546
546
553
555
558
559
562
562
560
560
562
562
566
566
569
573
572
576
574
578
581
580
580
579
581
585
588
590
590
589
589
589
591
592
592
594
589
591
589
588
586
581
579
576
576
576
573
572
572
576
571
569
569
569
571
569
570
570
572
572
572
572
574
572
569
570
571
571
572
570
571
569
570
572
574
577
584
586
588
584
584
585
582
577
573
570
562
569
568
567
561
559
554
556
555
554
555
553
554
567
586
606
625
629
616
580
536
508
506
514
522
526
530
533
536
543
552
553
552
553
552
549
552
550
553
552
552
552
554
549
550
554
555
555
561
562
567
567
562
568
567
567
566
566
568
568
566
562
566
566
562
561
559
555
556
552
547
545
542
538
540
537
535
534
534
534
535
533
534
536
536
535
537
535
535
534
533
533
533
534
533
531
530
532
534
534
534
535
535
540
546
549
552
552
552
549
546
541
536
534
528
525
522
523
520
517
519
521
518
514
517
514
514
524
543
555
574
589
586
553
508
476
470
478
485
493
497
501
502
509
509
516
521
523
523
521
521
521
523
524
526
526
525
525
526
531
533
538
540
537
540
542
542
545
545
547
547
546
549
553
556
557
556
556
555
553
552
553
550
549
544
538
536
534
537
540
541
537
536
536
536
533
533
534
535
537
540
536
540
542
543
541
540
541
543
542
540
540
537
538
541
542
545
547
545
546
552
555
554
552
553
554
552
549
546
538
534
534
532
531
530
524
522
523
528
526
526
530
537
554
569
588
600
597
570
526
490
480
487
499
511
521
522
522
526
533
535
540
541
541
537
541
542
542
546
546
547
553
553
550
553
556
559
561
561
566
568
568
569
570
572
574
576
576
578
576
577
580
579
580
579
577
572
569
571
571
567
562
562
561
562
562
560
559
561
567
566
562
562
566
562
562
562
567
569
570
568
570
569
569
572
571
572
572
572
576
577
578
585
584
585
589
592
592
592
589
589
586
584
581
574
571
568
570
569
570
570
569
567
568
567
570
581
597
619
637
651
649
622
582
546
529
533
546
554
560
569
570
571
574
580
581
585
586
585
585
584
584
586
590
589
592
592
592
590
595
600
601
601
606
608
613
615
614
610
614
616
616
613
615
616
617
620
620
620
618
616
614
609
609
607
606
606
603
601
598
600
602
601
600
598
600
600
598
600
601
600
601
604
601
600
601
598
600
600
598
600
601
605
604
603
603
605
607
607
610
615
616
615
614
610
610
603
598
598
595
590
585
585
580
580
582
582
580
576
576
582
593
607
628
648
662
657
627
584
545
529
536
545
554
560
561
569
569
570
570
571
572
571
572
570
570
570
574
576
576
577
580
577
577
580
584
586
586
585
584
582
583
585
584
585
585
589
590
591
591
594
589
589
589
586
584
582
582
581
576
571
569
567
566
566
561
560
558
559
561
558
558
553
553
553
555
560
558
560
560
560
559
556
555
554
555
555
555
556
555
555
555
559
562
560
561
564
568
567
561
558
555
552
546
545
541
540
540
537
533
534
535
533
532
535
545
559
579
596
608
603
576
535
496
483
494
505
512
519
524
526
528
528
528
533
536
536
537
537
537
537
537
541
542
541
545
544
542
543
542
542
542
544
549
550
554
554
557
559
560
560
560
562
566
562
562
560
560
559
559
559
559
556
553
547
543
543
543
541
540
541
541
543
543
543
541
542
546
545
544
543
543
545
545
547
545
541
542
541
543
545
543
543
549
552
550
553
557
559
556
554
554
555
550
547
545
541
536
536
535
534
535
533
532
530
528
528
526
532
545
562
581
598
608
595
554
512
483
486
497
506
513
514
519
523
525
528
531
532
532
534
535
537
540
542
542
542
543
543
541
543
543
546
552
554
555
557
556
559
562
566
568
569
568
568
568
571
570
570
572
573
574
571
569
568
566
561
564
561
559
555
555
552
552
553
554
555
554
554
558
556
556
558
562
561
562
561
566
560
560
567
568
565
567
570
571
569
568
576
581
584
586
586
586
585
582
582
578
577
576
572
569
567
568
565
562
567
562
566
562
566
569
580
592
603
625
641
636
605
566
532
525
533
542
546
554
559
562
566
568
571
571
571
574
577
577
579
582
582
585
580
581
584
588
588
588
588
586
586
594
596
595
597
600
598
598
598
598
606
607
605
604
603
601
603
604
598
598
597
590
586
586
585
583
580
577
579
579
